0
0
0
0
0
0
0
0
0
3.4779
-7.4898
1.0096
10.507
-10.117
2.3165
8.2387
-8.032
-4.943
-0.49744
6.7731
2.6244
-11.531
9.7585
6.5064
-8.8902
3.3532
-7.9437
2.1238
5.4671
0.5706
-2.1115
-7.8046
4.8504
1.0326
3.9789
6.2017
-10.08
-8.514
8.4406
1.6786
0.57015
-1.0397
-4.3749
9.0683
-7.7635
-0.94466
3.7083
-12.007
12.243
10.781
-1.4233
-7.523
-6.197
-0.814
-2.2284
13.882
-2.5065
-12.076
4.8686
1.2299
9.4445
-7.6592
-5.4466
5.9072
3.0123
8.3042
-10.259
-8.6964
-0.35197
2.5395
2.3258
4.828
0.075858
4.8011
-4.7533
-10.46
9.9508
-4.3397
3.4081
4.8463
-6.8098
-1.75
2.3064
6.9515
-6.5734
-0.83674
-0.92685
-2.3431
3.4603
-3.0075
5.1501
1.3365
-1.0721
2.4895
-9.6426
5.1846
4.9812
-6.9398
7.4394
-2.3956
-7.359
8.2877
-4.7356
-0.42146
11.675
1.0897
-11.737
-9.2317
3.7957
11.155
6.414
-16.887
15.661
0.20402
-7.8804
6.8821
-0.94864
7.714
-3.4307
0.60716
4.8568
-0.40979
-2.7493
11.242
-7.3074
-16.142
-23.418
-22.73
3.0116
-7.9522
3.3009
0.76675
-22.786
-10.34
-16.141
-16.12
3.3434
22.907
40.585
48.508
36.515
31.975
7.1838
1.2249
4.1878
-15.994
-1.2169
-13.275
-6.3172
-16.178
-15.958
-10.896
-10.78
-4.5706
-11.062
6.6227
-8.096
4.0926
5.584
-10.779
9.3662
9.9177
-4.5027
12.916
7.691
1.9287
8.3461
-10.759
-4.871
7.6297
5.282
-1.3826
2.5262
-0.62657
-14.179
-6.666
5.7415
-4.9285
6.1246
-3.7879
-15.308
2.0279
2.6377
14.995
-4.0513
-11.527
-5.371
-1.2966
4.4908
7.171
-2.7027
-11.13
1.5933
-2.6259
9.4826
4.8627
-1.2943
-2.9019
-2.2492
-1.1896
2.2719
3.8346
-8.1401
11.042
-2.0019
-2.1148
1.924
-1.5201
-0.078579
-0.43292
-1.9624
1.0131
8.1528
-4.9145
-0.59052
-4.0388
3.0575
-1.6164
-2.1333
3.9441
2.8328
-1.3658
2.585
-5.1523
2.3823
11.208
-3.6846
1.8288
6.3961
-12.593
-13.662
6.9746
13.142
2.4518
-1.149
7.1427
-4.4301
-7.5566
-3.2089
9.2165
-4.372
5.3241
-5.4273
-11.809
9.3966
0.58391
-4.7036
-15.514
-9.356
3.7931
3.5538
-15.183
-13.917
-6.1204
-9.166
-15.246
1.9049
21.762
24.935
15.885
21.252
30.028
11.854
16.227
13.802
2.3185
-0.00081194
-3.0582
-1.3862
-4.6869
-9.7482
-9.1473
-8.4837
2.2928
-1.6241
-1.1332
-7.501
-6.9611
-1.9185
-6.6442
-17.162
-9.8644
2.2364
-15.253
-9.2295
-1.0404
0.46382
-21.153
-14.439
-4.5035
-2.5645
-1.1286
-8.5348
-12.215
2.6301
-2.5363
-3.2826
13.514
-5.1046
10.69
15.298
23.552
36.307
51.735
57.553
56.991
63.85
65.098
42.57
9.011
-3.4906
-50.973
-70.09
-83.628
-90.159
-71.755
-64.738
-49.535
-38.615
-18.076
-12.672
0.87875
16.329
20.576
22.573
8.2904
16.884
24.935
21.586
20.734
17.101
11.61
6.6881
13.079
8.9259
4.2505
4.8492
5.4649
-3.5254
1.8949
3.0607
4.3562
3.0788
-6.3041
-0.87137
-9.6481
2.0298
-4.536
1.4187
-10.037
-6.9801
10.025
-4.6735
5.8078
-9.7841
-11.574
-3.6455
5.025
-2.5045
-10.981
1.1092
2.5735
-3.2685
-6.1654
2.1904
-2.7338
-0.35237
10.179
-8.2347
-2.3056
12.268
-1.4278
-5.25
4.2587
5.5038
0.33553
28.841
57.487
89.22
118.98
113.82
84.287
48.307
-19.676
-67.185
-95.64
-143.64
-146.86
-145.44
-127.83
-97.066
-66.199
-16.027
1.9554
12.439
45.286
44.836
50.649
49.882
25.814
35.468
19.944
12.671
-12.888
-55.11
-128.92
-122.24
343.99
825.4
684.43
149.43
-354.59
-585.51
-530.72
-327.41
-117.64
6.6174
61.301
65.884
30.396
-0.45047
5.1408
-5.1927
-5.6781
12.002
8.6676
9.0003
-8.7178
-24.923
2.6694
18.164
-1.5541
14.843
24.104
25.447
33.894
35.177
27.326
25.561
37.984
22.109
12.818
4.5091
13.527
3.2636
-21.347
1.6458
-6.8878
-22.423
-17.58
-9.4387
6.2454
-6.4339
-5.5265
-4.3831
-1.7198
-1.5098
-5.1337
-13.711
3.8413
9.3454
-20.948
0.41766
10.756
-10.531
-12.206
12.928
-6.7273
-3.5526
3.7532
-6.4555
-4.7298
-2.815
4.1934
0.041109
6.4308
-10.811
-0.52145
9.8965
-1.0711
0.75899
-1.7464
-2.5187
7.7606
1.1261
-5.73
3.6989
5.8966
3.634
-0.46708
-8.9067
2.7362
13.116
-6.4316
0.40931
-1.5637
-0.62512
-1.8061
6.4475
-5.4533
-5.1972
18.453
-4.7899
2.5151
-7.3361
-0.204
7.595
-5.8532
16.597
0.26708
-18.301
2.1966
0.093891
7.0306
13.45
-3.0998
2.1863
-5.424
-4.7684
11.797
3.2699
6.4458
4.1549
-18.374
-4.2814
9.2753
-1.4371
7.0709
-7.3813
-10.208
0.93234
0.6246
4.2529
-8.5253
0.93079
0.48799
-9.8925
0.29739
-0.25645
-10.609
10.757
1.4409
3.7282
4.3031
-18.478
4.4092
1.9842
-4.6841
-1.5289
-7.779
-4.3627
1.7173
-1.862
6.0375
2.8814
-5.2314
-1.8116
-1.1739
-0.30926
3.0115
0.87838
3.4343
5.2219
4.6623
-8.5099
-6.2656
5.5058
-5.5828
3.9267
9.4744
2.5998
-5.8362
7.3248
6.6398
-13.181
7.4799
10.862
-8.3327
1.4607
3.2904
-14.27
9.8594
3.9735
-5.7002
5.2513
-5.0313
8.5721
5.2122
-5.8029
-3.2379
7.7598
-8.0955
-3.6202
-1.0526
-1.3842
5.1952
3.3539
2.1532
-9.1999
7.1184
-4.9225
-0.07222
-6.0864
0.47373
4.0904
-4.8646
4.36
-11.193
6.1749
-1.8815
-2.1064
1.5938
3.6849
-9.2844
-12.435
19.568
-2.6014
13.401
-4.1579
-9.5841
16.15
-18.184
1.6873
5.9139
-3.4957
5.9941
-3.2439
11.253
5.8604
-2.6919
-4.0167
-0.67034
21.429
6.1864
-1.5012
0.34086
10.799
-6.6002
4.0079
6.0286
-7.619
2.3577
-21.211
-16.826
-11.453
-15.005
-9.2079
11.824
-3.1807
-10.856
3.535
-0.046792
-0.47432
4.1057
-9.7293
5.3155
20.004
-6.632
-2.2021
0.17768
-7.7611
18.692
0.083788
-3.2103
9.7117
-4.2883
-0.5667
-1.0929
2.1253
-12.623
20.018
1.528
-4.6806
5.3846
-14.436
16.212
8.5716
-13.695
-3.5881
2.9728
-4.8135
11.078
2.6788
-7.027
5.3275
-4.5982
0.73042
1.6674
-9.0985
4.1425
4.5761
-0.78793
-9.4999
-3.5363
14.161
6.1838
0.73383
-16.399
2.0195
11.067
-15.895
4.3868
8.3842
-5.9226
4.6406
5.7701
-14.479
5.311
6.2554
-5.1375
4.3383
-2.7048
-8.5605
1.0586
6.2854
0.06729
-2.6756
3.5027
2.6988
-13.574
8.8769
-2.1083
3.2697
-1.388
-5.9516
6.5452
-3.4108
3.5255
-2.5063
4.4729
-0.40066
-11.931
4.8743
9.9437
-3.6614
2.4717
-1.563
1.3933
-8.8776
2.2593
1.1687
0.78595
-0.64488
-4.5148
4.6484
-5.3966
4.8541
3.3078
5.8757
-15.998
0.017446
12.038
2.8912
-0.28697
-12.196
4.0143
5.1041
3.92
0.039226
-7.4864
-0.42247
-7.7973
-6.2074
24.003
-1.726
-0.36111
-8.2129
-0.10417
19.462
-12.535
-3.8587
-0.26312
10.063
-4.4947
8.9326
-10.189
-11.854
15.582
-14.87
-9.8851
0.44293
-3.6745
-8.8582
-12.559
-18.452
0.78889
8.2685
-1.6903
7.0471
8.3429
7.5425
1.9282
6.8954
9.4467
4.4418
10.968
9.8719
16.697
4.8867
5.0512
1.3383
1.0422
-1.0638
-17.792
4.0077
8.1265
-7.649
-5.6643
-1.5591
-7.987
6.9725
-4.6867
-7.684
-6.0753
2.8094
9.2035
-12.595
4.4942
-8.4864
3.4964
-5.2173
-1.7553
19.831
-2.8466
-2.0704
-17.78
0.28411
13.123
-10.379
0.50693
5.2253
-7.3392
-14.816
-6.531
12.405
-18.213
-7.2776
6.1766
-10.191
-2.0126
6.186
2.1649
8.3379
24.733
10.526
16.756
9.5111
1.2246
13.728
-0.54439
0.52276
10.534
-16.24
2.1773
-3.0362
-13.981
11.619
-21.792
-3.743
0.62727
-12.12
-2.8349
-14.116
11.052
-7.8918
-5.7024
2.8919
-11.562
-0.23839
5.3439
4.0676
-1.1244
6.0111
-19.736
0.35461
15.713
-2.5859
11.619
7.979
-10.83
-8.8871
15.911
4.0617
-11.887
7.0555
1.8326
-7.6335
1.5948
8.8965
8.9055
-20.244
-1.2206
11.84
-6.0939
7.7024
2.0139
4.0339
7.1358
-8.6525
-0.17314
-4.2685
-4.3665
4.8528
-3.6517
13.288
1.0471
-1.5738
-2.0814
2.6581
1.9625
-6.5138
9.9068
1.8203
-5.0135
-5.5492
10.464
-22.147
-32.348
-34.441
-34.257
8.1424
13.102
14.388
5.1646
-2.2358
-12.843
-4.1354
7.4406
12.72
27.208
22.604
28.803
23.646
7.7859
25.666
18.103
-11.705
-5.3517
-5.9825
4.427
0.2416
-11.845
-3.3034
-10.296
-12.832
-3.0699
3.9766
0.20793
-4.1633
-3.3406
-4.6243
-8.0138
-6.1704
-14.116
-11.968
-21.69
-12.156
-3.7684
-22.5
-8.4873
-4.4434
-2.9207
17.458
26.568
14.539
7.1447
14.956
10.246
6.9573
3.9861
3.2217
25.674
16.542
0.86547
4.6624
0.92376
-0.24789
12.228
-2.5569
-12.118
0.47093
-18.592
-2.7512
8.6613
-11.386
2.5715
-5.13
-11.01
-3.0456
-9.0571
-3.2036
-6.8886
-12.461
-0.44282
0.76115
-6.5497
-12.705
-7.1227
1.566
2.8912
-5.2719
-6.87
13.967
-11.276
-1.149
7.5656
4.6265
6.2218
-9.1659
5.5698
9.4436
7.3126
-5.0398
-7.404
-1.0806
13.912
6.9907
-6.7837
4.7953
4.0673
6.5323
-2.7914
-8.7571
21.381
-0.60056
1.492
18.428
6.4165
14.785
2.2467
7.3268
9.0961
-22.828
-23.568
-8.1023
-3.4892
-4.8998
2.4097
7.77
-11.822
-5.5272
-19.863
-0.8235
-2.0566
-23.239
9.1695
6.0858
6.5552
5.6479
-1.2416
2.3033
-0.17793
4.4958
0.82564
1.539
10.377
-10.194
3.9868
0.91045
-10.403
14.309
2.3422
-5.3143
1.0737
1.1591
-4.5265
1.5641
-4.6891
6.2921
2.0979
-1.2101
7.1936
-9.9505
0.92839
2.1897
-1.7028
4.6044
17.08
-14.723
-5.0392
4.6387
-14.884
13.255
-3.9611
8.293
0.71365
-12.515
15.267
-0.045601
-2.1142
1.6091
-11.737
7.3527
12.09
-0.20214
-1.531
-14.177
6.4509
4.693
9.2376
-3.507
-18.029
9.7352
4.1453
-4.0649
-4.0599
4.7566
-8.3255
-2.422
2.4982
-3.0293
-0.10268
-4.8199
7.6718
-16.196
3.8104
3.072
-8.0226
17.502
-5.6741
1.1911
-10.135
-10.442
2.9281
12.163
4.594
-8.556
1.92
-6.6053
3.306
12.473
-7.1064
-1.1851
11.245
-5.5766
2.9478
-2.9695
-6.9881
2.5854
-9.0302
3.819
9.1499
-0.62222
5.1587
8.0472
-10.098
-1.304
7.0055
-19.374
10.126
2.5838
-1.7737
5.8921
-8.4017
14.942
-2.3852
0.90656
3.041
-9.354
-2.1656
-6.1705
18.725
10.419
-9.8159
-5.8383
-0.20995
9.6131
-5.7172
13.474
5.0414
-4.362
-6.5297
-4.5317
11.808
4.7527
1.3848
-5.9331
6.764
-5.0788
2.7868
-4.3974
-12.071
9.1579
-2.2443
2.4696
-7.3239
-2.4452
-9.3207
-11.731
7.7943
-11.551
2.1673
-4.7259
-2.1142
6.5334
-12.243
-2.4453
14.56
-4.0594
-5.2547
-0.112
4.7187
6.7089
-20.991
9.5223
7.1121
1.1304
-9.1541
-6.2936
16.91
1.618
3.7276
-2.0109
0.38833
-4.7254
-6.7824
-3.0076
10.855
12.551
-6.141
2.4721
14.525
-14.563
-4.7875
2.7399
-8.1977
12.914
-0.43121
6.9434
4.5096
-8.7922
-10.012
6.1583
5.1875
2.2843
-7.5239
-5.3768
8.704
-2.8628
2.3189
-1.5579
-2.2807
2.9089
8.3993
-3.2444
6.3746
-4.4464
-6.612
-2.9646
-6.9334
8.0521
-2.6566
6.5297
0.00066618
-7.1882
11.598
2.1452
-11.127
7.908
3.7504
-2.4611
-8.144
-1.5718
11.345
-4.2852
1.0522
-9.8425
-0.15534
9.0495
0.40353
11.009
-10.599
-5.1778
10.929
7.2112
-12.729
-0.87362
7.8977
-12.311
9.0529
-2.7687
-0.80656
0.31725
-1.2982
2.8538
-23.476
-50.63
-31.16
-9.6057
-10.978
23.952
28.818
30.751
46.798
23.028
15.013
17.814
-1.8834
3.0884
0.24351
-14.259
-11.802
-13.197
-8.1886
3.4489
-6.3059
9.7903
-1.6754
-2.2232
7.3245
-27.846
-9.1397
-4.8106
-4.6864
-4.7233
-0.34758
5.3963
4.1587
6.4598
-1.0584
-2.2209
3.8388
1.271
-3.989
-1.5
1.2631
1.6581
-9.3411
1.462
-4.3161
10.077
0.38631
-9.0405
2.1432
-4.8881
7.089
2.0781
2.0169
-0.06796
-1.5366
-1.5807
0.43407
1.6802
-3.6934
6.8975
4.4759
3.1289
-9.2754
-9.3132
24.704
-1.1621
-8.9412
1.7953
0.80456
4.4485
-10.571
-2.6228
3.7335
6.9434
4.3378
-5.1202
-3.3931
-6.7664
9.3799
11.847
-3.645
-11.262
-9.1541
5.0258
1.0042
9.0702
-8.1372
-7.9284
9.5563
4.9595
-1.9877
-15.156
5.4811
12.497
-10.08
1.4178
0.53781
-5.9527
6.7951
-1.3608
4.9016
-10.002
-1.8219
16.092
-4.3841
3.3338
1.4585
-5.9747
2.9354
7.7208
3.372
-14.787
-3.7639
9.5681
6.2589
-0.78997
-3.7481
-6.2547
1.25
4.6549
-1.9611
2.3082
-5.8474
2.3093
0.67688
0.59783
-3.5477
5.542
5.7607
-13.637
6.0068
-5.3788
-4.1918
10.844
0.23281
11.119
-11.091
2.611
-13.437
-1.3131
26.935
-22.197
10.334
-9.2308
1.9851
9.9732
-8.7885
9.486
-8.344
7.0188
-3.3427
-0.54959
3.7684
-1.2898
3.0006
-0.89681
2.6006
-2.5232
-4.5672
-6.8219
12.048
8.166
-9.5257
-7.8527
-1.7427
-8.7798
-17.025
-11.874
-29.117
-29.403
-31.651
-13.772
20.064
27.821
54.221
45.899
35.594
27.503
-0.28924
-9.8443
-18.349
-3.9151
0.90113
3.3392
2.0548
-3.52
-8.7308
-24.561
-19.168
-23.365
-1.0172
6.8708
-8.0155
12.531
-3.4015
-21.291
-6.4872
-5.0454
-7.8857
21.146
19.187
1.6037
14.428
17.649
10.265
1.9448
7.5036
3.195
12.076
3.6029
-4.4835
5.3383
-8.6001
-3.2843
-0.40773
-11.597
-6.02
5.8529
-3.4067
-11.892
-1.5679
4.63
-2.4283
-13.212
4.3001
6.2443
-9.7582
3.9967
-8.8111
5.1378
2.9439
-4.6238
6.2657
-9.4982
17.361
-11.572
-16.63
11.311
0.2783
6.9727
2.2102
2.6633
-9.4041
0.4952
5.2487
-11.548
8.5967
-6.0505
5.2503
9.265
-6.5815
-5.4182
5.4119
13.858
-13.121
-6.4748
-4.1
14.518
0.29076
-5.9617
5.4207
-9.4385
9.2737
13.563
-15.098
-3.407
6.626
2.1561
3.889
-7.2549
-0.36584
2.342
9.8264
5.1849
2.7104
2.6547
19.064
0.12136
-8.9324
15.538
5.7178
-1.1728
-1.0548
0.072281
1.2948
-5.815
-8.5119
-21.849
-41.639
-34.084
-21.262
-7.1286
-4.6685
5.7534
-6.3459
-7.8995
-10.385
-16.419
0.044271
-11.033
15.015
41.74
42.413
54.253
43.299
14.366
10.222
-4.6127
-16.856
3.4124
-7.6142
-13.732
-4.0294
-1.9036
-11.284
-14.391
-3.6614
0.38063
-5.3318
-7.6843
3.3636
13.282
-11.275
-10.52
3.1582
-10.711
11.184
6.6626
1.4643
-3.4837
0.61595
-2.2786
6.0625
-6.2212
-15.566
20.678
2.451
1.4805
-6.7485
-4.6952
8.6934
-5.4341
-3.5416
2.007
4.7953
-4.7748
-5.9327
12.646
6.501
-10.306
-5.5464
7.1299
-2.9234
-0.68238
5.1441
0.35916
-1.1251
-10.099
8.5299
4.7866
-7.7971
-0.11648
3.2115
-0.86171
-6.063
10.293
3.6932
-11.105
-0.93639
0.75083
4.4686
7.1639
-3.1736
-8.2325
3.0018
7.1123
1.6897
-0.81434
-12.271
-4.6631
-2.9202
8.1287
4.3604
-4.9026
14.497
-17.765
-0.92533
14.086
-6.4154
-0.89125
-9.4333
4.2422
-1.0938
-1.2761
5.2455
-8.7998
-0.30548
0.33916
7.328
3.7839
-7.8483
10.24
-0.30465
-2.2054
-7.4583
-2.1428
-0.16191
-1.363
9.7819
-8.1887
9.0843
7.2233
-4.9846
-2.2911
-10.411
6.3382
-2.3324
-9.3903
25.144
1.5387
-15.978
1.3743
1.862
7.9714
-10.503
-3.3623
12.395
-0.20653
2.2868
-13.44
4.7552
14.045
-20.073
9.0081
-9.3388
8.367
10.03
-10.007
-0.31524
-14.673
15.173
-3.3478
11.896
-6.1667
-3.5611
4.5996
-10.678
5.1862
-4.3593
19.098
3.1595
-22.13
0.7844
5.6248
-7.8942
6.5498
10.982
-7.4881
-9.8037
8.5755
-0.73143
-13.199
4.2812
20.236
-1.4576
-5.2041
0.87817
-16.627
5.6875
3.6986
-8.8449
4.5285
6.447
7.699
-5.2426
-5.6963
4.9187
-11.184
-2.0297
14.989
-5.0927
2.3227
-1.6232
-4.5653
14.431
-11.312
-0.36344
13.069
-6.5982
-12.992
-1.7541
16.11
-4.9923
6.5708
0.83479
-16.526
6.3621
-9.7252
8.8942
5.6216
-11.574
10.862
0.19168
1.5206
1.5706
-3.6929
10.417
-8.0656
-11.214
6.2891
8.5868
2.5192
-5.2378
9.8305
-4.1408
1.819
7.8529
-11.523
0.6429
1.5667
6.22
7.7835
-13.66
-2.129
0.72165
-8.2608
12.078
5.9568
2.8896
-13.017
-5.0017
2.2953
-3.2051
12.177
-7.1363
-7.3765
-8.9502
14.445
0.6129
-14.433
3.0138
-3.2564
10.898
-11.179
-1.0369
-1.198
-6.3152
5.2179
-1.2951
16.361
-2.2266
-19.992
1.7717
-5.9634
-9.5528
8.4137
-4.9738
-4.2935
7.2097
13.358
-1.1158
4.8673
0.93142
-1.2839
11.612
4.3605
4.824
-6.008
9.0285
7.0971
1.0246
-12.834
-9.9076
8.2986
0.53882
0.94695
-7.0729
-7.6873
0.92685
7.7313
-5.5894
0.50888
-1.9684
-15.63
17.228
-2.2089
-12.078
6.307
-7.3914
3.8262
5.8052
9.9363
-10.773
4.5575
17.622
-17.986
-5.0553
7.3417
-8.1963
9.3314
5.61
-7.2126
10.73
-5.5394
11.024
-3.8843
-9.705
8.2004
1.8433
3.315
-3.3868
-4.3399
-7.4431
9.7456
1.8056
-10.235
2.4036
4.6062
-10.239
-0.08049
14.026
-6.2234
-7.0102
1.4074
0.48613
-5.1805
4.7265
1.1567
-2.2792
7.5846
-7.6963
-1.5304
-2.0476
-10.75
12.225
5.548
-0.61389
0.10135
-11.486
-6.3027
8.5548
2.0019
7.7453
-5.6521
1.8077
1.7052
-14.931
15.629
-9.3114
18.993
-6.9292
-15.437
20.586
-18.564
8.3831
8.9212
-3.8852
-2.7138
4.4113
-0.36713
-8.6168
10.155
1.2548
-11.067
2.1392
10.872
-5.6485
-4.8553
3.5329
1.0699
2.5922
5.9931
2.4238
-8.9972
-0.070824
-1.1514
-4.4721
1.4125
-3.0952
2.2239
3.1759
9.2248
-15.792
-1.3047
2.6944
-9.6264
11.615
-3.0695
-12.738
0.54437
4.7151
1.264
-3.1596
-4.7948
17.018
-10.304
9.427
3.2861
-4.3792
17.585
-6.8635
-0.96143
-2.1557
5.1959
4.6432
-6.9964
2.6597
1.9963
-2.4227
-0.36905
-11.634
-3.4959
8.7833
-2.1915
-1.9024
-1.5609
-11.714
14.863
-3.8364
-5.7847
5.8442
-3.7827
1.8702
0.11069
3.5738
-4.8743
-4.9826
1.0572
12.964
-3.2605
-0.033736
2.4771
-11.116
5.45
0.53727
-0.50528
2.7352
5.5356
0.33682
-7.8922
-1.2049
7.4303
3.8943
-6.7041
1.6173
2.707
0.80114
-7.5217
5.8323
4.0454
-0.41766
-1.9717
-1.7486
0.78873
-6.3797
9.6248
1.6782
5.233
-1.471
-3.0026
7.3016
-9.7313
0.24292
7.9013
-4.8445
4.8594
-1.3271
-0.048277
2.4981
4.1905
-4.9703
-2.8738
5.226
-6.9158
-9.0092
-34.636
-24.375
-22.214
-11.013
-6.7329
-6.55
17.931
23.169
24.707
6.9679
11.784
32.05
34.901
27.909
0.18748
3.0162
9.6788
-11.729
-12.474
-12.31
-8.4008
-5.7816
-8.4357
-13.422
-2.816
-4.9348
-16.037
-2.4713
-2.7766
1.3861
-4.6199
-2.5263
-1.6326
-7.3237
9.4342
-4.5597
-7.2196
9.6965
6.0551
-7.3235
-0.96634
-1.0453
4.8109
9.3334
-1.0393
5.9564
-9.7999
-0.35751
8.2234
-3.6876
8.1332
-1.1415
-0.68501
-6.7175
-2.9158
9.5592
2.5486
-1.4153
-4.5119
11.266
0.29928
-7.034
4.3614
0.68735
0.037073
-6.3221
4.0816
1.2834
-2.9853
1.3667
-3.3221
2.7419
7.2044
-4.5108
-9.5525
7.6459
1.342
-4.6867
3.7712
5.8469
-5.8807
-0.58088
4.0273
-3.0421
2.6275
-12.176
-2.462
15.098
-3.1218
2.1482
-7.6117
5.8484
10.11
-10.761
-2.434
-9.5432
12.268
0.60497
-6.8037
12.859
-2.3791
-8.2414
-3.1406
4.2486
-0.70433
3.3516
5.3356
-4.0314
0.16842
-7.853
0.40446
7.6195
-7.7475
-1.5835
10.421
0.6347
-1.3
-8.6254
-1.4748
2.693
14.611
-7.9796
-11.813
18.936
-12.129
10.861
-3.6965
-6.2736
-10.353
8.369
5.0689
-11.703
20.854
-8.9004
3.1448
-3.8949
-1.5801
4.6506
-16.645
0.85123
14.884
5.5094
-12.475
-1.1374
7.2387
1.8779
-5.3201
-3.5587
4.8515
-12.524
3.6948
25.044
-6.027
-11.414
1.7469
-9.9216
8.0738
-2.1589
7.6808
-3.8166
-2.9357
6.8544
-9.5992
9.1977
-8.3646
3.6657
2.9214
-4.1256
-5.5217
9.5871
8.6573
-9.9708
-2.9641
-5.8542
13.914
-2.7284
-11.574
6.5574
-6.6525
12.701
-0.24834
-7.5188
4.5547
-8.2192
10.817
1.5951
-7.3211
0.6268
-15.966
-4.7156
22.51
6.2581
2.2173
-8.091
-10.759
8.7239
-1.464
-2.1311
-2.5828
8.9031
-3.9526
-2.7607
6.3894
-7.7626
6.5513
4.4469
-11.205
-9.4709
13.66
-0.44871
-4.5228
0.99921
-2.7925
4.7548
-0.10472
2.8751
-4.181
-13.735
14.891
6.4022
-16.309
9.2616
0.74374
-2.8348
8.2204
1.0985
-8.7025
8.7599
-1.6942
-11.738
3.5919
1.6082
7.6724
1.7846
2.3433
-3.9737
-4.6492
5.1204
-2.7383
0.9808
4.7295
-2.1978
6.9264
7.1908
-7.0767
-0.15471
-6.919
6.1112
11.426
-4.0337
2.2253
-3.9376
-10.965
-1.2024
8.5674
-3.408
-3.4298
-9.7999
-1.2581
-14.475
-10.612
6.9796
-15.38
2.4866
-4.5015
-6.4422
7.2571
0.34557
2.4445
2.3797
30.404
32.785
46.712
70.392
60.264
51.138
41.437
26.551
-2.4852
-24.499
-50.056
-82.142
-80.138
-79.8
-76.946
-50.696
-52.406
-26.43
-22.459
0.80152
11.454
-0.42748
31.363
19.998
21.187
32.399
9.0132
5.4778
16.359
8.0837
20.931
12.266
9.2969
18.886
5.3113
-3.8232
2.2874
8.7311
-0.045609
14.292
-9.5521
-8.8985
4.8466
8.6428
6.686
-15.455
10.597
-7.9837
4.2173
4.4771
-10.007
16.678
1.8903
-2.7078
7.4541
6.1458
13.977
8.8575
7.2719
5.1729
-24.221
-19.527
-13.142
0.86011
0.77592
-1.5694
6.4136
-14.953
-8.8655
-7.62
-11.22
-3.4821
-9.4712
0.91737
6.8105
-1.4956
-1.6929
16.223
11.111
-7.7373
9.8207
-5.1612
-0.36289
6.8285
-1.2894
12.403
-14.365
-7.4064
2.67
6.9689
1.1006
-3.2859
5.7063
4.3892
-1.4763
-11.647
7.2525
3.2615
1.8625
-3.2404
-2.9945
6.5868
-4.6705
7.4845
-5.3545
-10.028
7.0979
4.0352
-1.706
-2.7121
11.006
-5.2651
-3.3695
7.2569
-0.37607
2.7575
-7.4709
-13.493
-5.1652
2.9916
-26.244
-2.8323
1.7379
-22.932
12.188
-11.28
3.0212
17.868
13.792
1.7158
-12.393
17.057
11.136
21.045
-4.8613
17.445
7.6411
-16.586
12.405
5.0215
10.942
-0.7125
-9.1959
-18.456
-3.887
8.783
-3.2515
-7.1158
5.4389
-19.626
-4.1914
3.9359
-6.0647
3.1123
-2.4269
0.82951
-2.6377
3.8806
7.8849
-1.3342
-14.956
8.2548
6.2285
-5.4924
-3.9261
1.4781
3.3593
-0.99645
0.24354
-0.312
6.4799
-4.9963
2.2038
13.464
0.44366
0.82347
3.1009
-9.4352
-3.1486
19.241
7.8117
10.744
-6.5725
-10.758
0.56912
0.74259
9.4912
-4.405
2.5013
-10.105
-5.9818
2.8353
-6.3537
-6.2306
-3.9025
-14.159
-2.8029
4.5974
-12.85
1.4313
2.748
5.1138
3.6263
-9.3242
0.10321
3.1927
-0.56435
8.8598
4.0828
13.48
-1.1579
-5.4486
9.2178
-2.4172
8.214
-19.987
6.272
5.1548
-5.6512
6.8007
-3.4565
2.6614
-20.71
-1.8434
3.2583
6.7175
-20.396
-14.88
21.435
8.5303
-14.716
-9.1759
3.7808
-1.8563
7.7428
5.5076
5.4248
6.2003
-15.219
-5.218
14
-2.1782
-0.92604
-0.32724
8.0105
5.9538
-1.067
0.28835
4.8096
0.40386
-6.0033
1.576
1.281
4.2477
18.217
-7.5371
-18.663
7.2822
2.5217
2.1367
-9.1167
-5.1681
-7.1125
-5.0774
0.67624
-14.979
-5.5237
-16.636
-17.569
-8.747
-16.47
6.5359
20.797
17.639
32.888
14.99
13.196
21.79
9.7665
8.6975
-3.6394
-2.2109
-4.3951
-7.4037
-10.904
-0.16015
-6.844
-15.215
-6.3729
2.9154
-8.1613
-24.778
1.9637
-5.1773
-15.38
-9.4605
-12.492
-40.946
-46.711
-94.806
-188.08
60.055
631.23
819.31
433.51
-123.13
-515.82
-575.92
-428.89
-220.04
-48.289
38.673
69.628
64.621
19.439
10.783
15.207
-2.7975
11.586
16.044
27.464
20.519
13.386
19.594
20.052
22.969
9.5462
6.7845
6.9308
30.313
-0.32048
-16.819
7.8085
6.1332
18.456
-14.003
8.633
7.4295
-16.967
20.357
-13.174
-2.782
8.1756
-12.649
2.8891
3.7329
-5.7495
-5.4097
13.439
-2.3127
-9.2262
-3.192
-7.9578
10.247
11.299
-16.083
-5.2253
13.23
-5.4363
-9.336
-0.45148
6.6649
9.3781
-9.3677
-9.5161
2.8039
-0.91069
0.34718
-4.4727
-7.5911
-1.3212
1.2008
-7.9668
8.5914
9.4919
-18.675
-2.9753
-0.67121
-4.749
8.1479
5.2246
-1.6194
-1.6969
2.7964
-3.2472
3.0539
5.4924
2.9372
22.307
54.324
94.967
113.21
133.29
104.16
47.825
-1.5368
-79.32
-112.1
-124.17
-138.13
-137.7
-121.33
-108.4
-67.075
-33.439
-14.913
21.43
42.963
43.461
35.117
48.754
53.237
33.823
27.935
31.511
15.685
15.803
22.39
-1.9075
11.714
7.6273
-5.92
10.665
-10.236
8.019
2.5161
-3.4519
-1.6398
-9.3131
0.001948
3.6544
10.251
-6.7326
-4.154
8.8258
-3.3268
-10.939
4.4908
-3.9623
2.4797
9.8574
-0.098041
4.3613
4.3061
0.16484
-10.021
-1.1492
6.8426
-12.258
3.2272
8.9077
-8.2607
-3.1656
-15.4
6.6042
-3.2927
-4.7323
12.404
-7.1377
-9.1586
-12.225
-1.9717
1.3305
3.8683
9.2917
-1.5029
-13.44
-2.747
-0.66245
5.7578
1.4471
-7.7255
14.212
-5.6341
-4.9442
9.3592
-2.2006
3.0413
1.1947
10.423
-6.1983
-12.148
20.018
-3.2868
-1.8626
12.029
-8.74
6.6262
-8.5818
-2.6305
10.151
-3.7484
6.8243
1.1275
-9.181
-2.0682
7.2458
0.42203
4.8767
2.0319
-11.036
0.24491
7.6572
-0.96434
-8.3516
3.5665
9.2757
-12.17
1.2927
11.864
-9.7258
2.7489
1.5706
3.5978
-4.7335
-4.3374
2.9781
-7.6075
10.042
-1.4617
13.441
-5.5796
-11.724
7.6254
-4.3615
4.4079
3.0759
-9.5421
-17.122
-30.276
-29.951
-23.566
-1.1995
17.787
2.7929
17.944
-17.592
-12.83
-5.7209
-6.1707
27.425
27.108
35.558
27.721
8.689
17.191
30.473
-3.4652
-1.2814
6.8096
-3.4968
-10.912
-10.206
-0.43132
-11.938
0.10871
-9.3709
-14.594
2.9241
-15.244
0.45228
6.3064
-17.736
6.5017
9.5163
-16.61
-8.7645
5.2322
-3.3655
-4.1963
12.259
-0.017666
-5.5724
-2.401
8.0456
-0.71861
-9.6571
3.3697
-2.4754
2.7248
2.1201
4.9164
4.7597
-5.6646
-4.7667
3.5125
1.155
8.6218
4.2387
-8.4599
-1.4923
11.208
10.437
-0.72443
2.5847
8.5475
-4.3063
-8.4438
12.733
16.848
-0.70556
2.26
-12.209
-0.53268
3.2989
4.9726
6.3279
-14.606
-1.6232
-8.4432
-13.094
-20.217
0.86687
-14.74
-24.825
-8.4238
-22.535
-3.5263
9.7007
-14.026
-12.726
-1.153
8.9058
20.28
9.4304
14.342
17.343
19.163
25.157
11.399
0.35341
16.028
19.316
0.58587
-5.976
7.8123
10.556
6.1864
15.933
9.7408
8.0679
8.5289
-16.075
-39.818
-69.42
-53.613
-42.888
-39.676
-15.393
-4.8677
37.478
28.766
22.669
35.978
14.902
10.69
4.5744
-15.837
-3.8363
16.863
18.117
12.306
6.4185
7.0167
3.4563
2.7333
-7.2767
-2.5729
-2.202
-3.4465
-3.6042
-4.563
-2.818
-4.9272
-6.7925
-9.152
13.39
4.6731
-5.8881
1.5992
-11.293
3.7149
5.0322
-4.7901
-3.1997
-6.0328
6.2253
9.7769
-8.2984
3.3209
-6.8045
-10.199
19.912
2.545
-5.5125
-2.4787
-4.3398
5.9157
3.4209
-1.7533
-0.72968
3.8439
0.30785
2.0646
12.541
-14.76
4.4545
-2.0521
3.6833
8.0319
-16.193
24.238
1.7798
-15.956
-5.7801
-6.7232
-0.51242
3.2352
4.3733
-2.3345
-0.48581
7.5623
-6.1713
-7.7917
-7.7654
-21.959
-19.278
-7.8483
-10.886
4.3393
8.2569
-21.959
-5.5933
-15.847
-25.675
-8.5727
13.831
41.552
51.296
38.664
16.711
30.476
27.878
0.32747
-12.568
-6.0658
3.0395
-6.1287
-33.15
-5.3264
0.77333
-6.7163
7.4316
-10.144
3.8507
-5.0974
-7.6186
-3.738
4.1518
4.0967
-4.3284
7.5386
-8.2208
-1.0538
8.3224
-4.7455
-6.7249
-10.374
-23.875
-21.038
-16.887
3.5477
-1.6743
-29.171
1.8254
8.9716
11.998
26.411
23.332
7.2285
-0.10232
13.942
-1.8479
11.041
15.198
9.4259
16.105
12.063
-5.1575
-10.033
1.9053
-2.7013
-4.5518
-10.135
-6.5016
-5.7197
-6.804
-3.1372
0.67138
-11.058
1.4768
5.5131
-8.3576
6.5759
-8.4967
-5.1734
4.3696
-7.4503
5.6173
0.85339
-2.6731
0.86534
2.8589
-5.2968
-1.7818
3.8295
-3.1305
3.3084
-0.22569
2.6362
-2.309
4.8269
10.45
-7.816
-11.081
1.3842
1.411
-3.414
15.253
-1.9656
-8.9565
12.91
-9.2001
-1.9711
7.5795
-12.347
-2.7284
11.233
4.2943
4.1101
-6.1324
-8.0377
7.7585
3.775
-7.1282
-1.4209
-1.6325
2.9199
-2.7567
0.13082
12.363
-7.0293
5.1553
-6.9569
-6.0076
2.5539
6.3907
4.6383
-4.8263
3.2905
-3.9341
6.5543
-12.439
1.5169
7.9492
0.89736
6.9818
-8.1845
8.916
-0.65109
1.5819
3.4379
2.029
9.7533
8.523
9.2186
-3.7323
1.9536
9.6593
-2.5046
-11.166
-22.443
-8.3382
1.7948
-13.139
-9.132
-15.861
5.5767
-9.3275
-7.7127
10.802
-4.1761
4.7288
-0.44011
2.1864
-9.208
11.887
17.573
-13.39
-6.4241
5.3412
-1.5881
-2.028
14.055
3.1552
-10.315
0.63109
13.53
8.6012
-3.8046
-6.9235
6.4863
8.0414
-8.7018
-3.3961
9.0502
0.7105
-6.9458
4.1379
3.9768
8.583
3.2367
-1.3366
1.1075
-4.7455
-6.797
-8.3453
14.614
-9.3348
1.5908
12.517
-10.676
-3.5138
-8.2196
0.4655
7.4644
-0.74055
-13.53
-0.40937
12.115
-3.1728
-9.8937
-8.1428
-4.2827
15.679
1.7368
-9.1451
-4.4715
3.4288
1.4292
-3.422
11.712
-1.4071
8.0122
-8.0878
-7.3112
3.143
-3.4209
1.4795
0.30973
14.769
-12.208
14.188
-1.3202
-13.465
6.6949
2.9567
7.4014
-14.423
9.5891
-1.7432
4.8493
10.104
-13.87
4.3576
2.0017
17.214
14.454
-3.7416
4.6693
-3.8423
3.1656
7.011
-1.9228
9.6788
0.31587
-11.151
-8.7823
-24.12
-16.32
-8.6027
-19.982
-12.032
-2.5922
4.7925
11.143
-0.28754
6.0622
1.3551
2.8904
9.3408
-3.2385
0.71506
7.9867
-1.0256
-1.1869
-2.97
3.1739
0.44988
16.293
8.1129
-24.96
0.76658
-9.0024
11.774
11.323
-7.726
-0.82975
-8.5148
1.1828
2.4168
6.1456
1.8642
4.4381
5.7595
-13.348
-4.5402
7.0842
5.8072
-5.7019
-1.9323
-0.097538
9.1502
0.38371
2.3694
5.464
-20.745
2.6072
-0.40994
17.158
10.234
-14.618
-9.3088
-5.0941
-0.8251
8.4268
1.6933
2.3401
4.8146
-8.3892
0.51563
0.019699
7.0908
-7.9825
0.42861
8.6476
-8.1963
5.6539
-1.4051
-2.1491
-2.3504
6.8123
16.618
-21.34
9.3277
-5.177
-10.491
21.629
-16.036
18.224
-3.2438
-7.9578
10.733
-2.4408
14.396
-13.868
-1.7806
-5.7098
0.70226
-1.8355
0.35377
9.9093
-16.993
4.8817
-5.9466
-10.933
8.7733
-11.202
2.0358
-8.9944
-16.967
-5.9079
-23.833
-10.959
-20.616
-20.264
-27.19
-3.5253
33.094
49.202
65.921
48.996
26.378
3.0393
4.9274
-8.8442
-10.628
-5.6291
-13.088
3.6183
5.6285
-5.4314
-16.508
-15.798
-28.29
-0.42635
1.2101
-1.0914
18.679
-2.9245
17.888
9.3912
-1.3212
-5.5702
-10.897
-6.2501
-5.2107
-4.2352
-3.1407
5.0978
-16.581
-2.043
3.6819
3.3664
2.3449
-9.2291
7.1089
-3.1845
6.1358
-2.0815
-11.441
8.466
1.2728
9.8533
-4.8791
-6.1567
20.048
-12.144
-1.7921
7.2764
-6.3614
3.0265
-4.1977
0.77499
2.8684
7.6081
-1.1856
-16.814
-0.26054
7.6703
1.9447
3.6109
1.7559
-2.2507
1.8436
-1.4935
-13.13
15.089
8.5645
-13.432
1.128
7.628
-3.4309
-4.4544
-1.4241
8.7318
3.4741
-7.1287
-2.5194
1.4693
17.058
-11.283
1.4678
-3.2605
-6.2346
12.312
3.4754
-2.7129
-2.048
-4.0209
-9.4492
14.289
0.39379
4.4588
-9.7474
-7.22
11.491
1.4444
-8.1351
-7.3547
10.087
-10.448
-0.39027
0.83511
8.4582
-0.31851
-18.61
-1.7561
8.6735
11.766
-15.124
2.4735
9.797
-11.183
7.078
3.9376
-11.974
14.213
-4.8555
0.37151
8.4208
-19.958
7.7826
8.7905
1.2015
-3.1948
-1.4596
2.1897
-10.192
-0.54543
10.764
1.0453
-1.7331
6.3801
-7.1606
-9.2537
13.042
2.365
2.9547
-11.575
4.6104
-0.90397
-9.1355
16.59
-13.645
2.1031
4.2536
-2.6225
3.3708
12.567
-8.8185
-9.5978
9.5553
-9.948
2.6284
5.1791
-1.3506
-2.2471
-6.3988
11.266
6.4901
-14.007
3.878
0.7258
-10.909
-0.68246
15.441
-2.6373
-8.2515
8.9907
-1.2166
-4.6042
-10.108
8.0422
14.889
-6.432
-15.85
-0.73563
14.825
5.6637
-8.0467
-4.4952
6.7994
-2.9108
-3.4499
0.62869
1.0194
1.831
-10.46
10.913
10.441
-0.3736
-6.1176
-12.52
14.402
-9.1226
2.3787
2.1238
-6.1365
12.128
-11.158
8.2093
-3.9484
1.7961
7.0111
-12.793
4.1503
0.50275
1.0077
-0.98748
-3.3406
3.904
-1.9129
-2.8078
7.1911
-5.3955
-2.0943
2.782
-4.3901
8.5233
1.1324
-7.8071
-2.7632
2.2014
5.239
-4.8764
2.8342
-2.2789
0.81682
9.7638
-13.727
0.19672
9.5622
3.3694
-0.73568
-17.063
1.0631
10.265
-0.22144
1.3394
-2.5702
-1.8091
-1.01
3.0604
4.6349
-2.3651
-4.1751
4.7924
-8.0058
3.5264
10.063
-6.9964
-11.429
1.328
10.993
-2.0646
4.2027
-6.9186
11.903
-3.3051
-13.144
-3.7776
9.4863
21.309
-17.974
-5.884
3.4577
-0.2634
3.9321
1.7871
-0.86599
3.1858
-4.5184
2.8801
-0.26636
-1.7562
9.9653
-7.8271
0.66716
1.2175
1.3419
2.2015
-2.3327
0.84315
2.2515
-2.1493
-5.4512
7.4161
2.06
-13.008
-10.988
-9.355
4.4732
-5.3399
-5.7565
-12.59
-29.057
-0.94606
-2.2962
4.6168
16.799
19.174
15.001
17.549
16.911
14.591
7.7403
-6.6423
-16.762
-40.168
-19.489
1.703
-8.9195
2.0086
10.047
3.5129
22.709
18.153
23.876
13.114
14.483
17.192
3.8747
17.331
-2.8531
-14.702
-21.285
-6.0597
-3.6468
-16.153
-18.984
0.46884
2.2202
-14.914
-12.171
0.91504
-7.1415
2.6469
2.1542
-12.151
6.0805
-12.175
3.296
9.98
-0.070023
-3.7764
-3.582
2.1784
4.0428
-0.23555
-0.042934
4.819
2.4589
-7.1023
-2.4974
12.722
9.0669
-7.408
-8.9484
14.884
-8.4505
-0.50962
3.0666
5.971
1.2837
-11.81
9.9204
3.8143
-6.3493
0.72886
8.0905
-3.462
-5.8269
0.43451
3.411
1.1002
-0.29152
-6.7538
6.635
8.0418
-2.455
-9.2494
0.018798
13.287
-3.2469
3.1552
-12.404
-3.7175
15.025
2.4075
1.121
-6.2891
-4.7622
4.1278
1.5318
3.5316
5.1219
-5.4563
1.4024
-3.1657
6.0703
-7.8439
-2.0989
7.973
5.4176
-2.7518
-13.644
19.345
3.4525
-8.6386
-5.4379
-2.5768
3.3208
1.5919
1.7693
-4.211
0.58252
-4.8886
-12.77
18.288
0.68259
-21.079
10.098
0.90054
-1.5293
2.853
-7.2447
-1.8153
-11.15
3.5356
1.9036
-5.5369
11.269
-1.0643
7.0048
-10.762
-0.18813
1.7005
-4.841
7.911
3.5115
-5.0273
-3.1569
6.7847
-15.286
9.2332
3.3924
-0.27724
6.0332
3.6068
7.0231
-10.76
-2.3452
-4.4356
8.7732
7.0216
-11.74
7.2975
8.6201
-9.5786
-7.1666
1.4567
-6.3622
-5.1713
-11.777
-0.47942
-21.24
-7.3194
4.4382
-2.8696
17.546
-1.6716
12.386
5.1227
7.9149
3.6795
1.5639
6.062
12.853
13.601
6.7711
0.77392
-4.1689
8.9672
-4.5691
3.9285
3.0019
-1.7193
-17.452
-17.398
20.488
-5.5086
-0.11756
-9.66
-11.034
5.588
-6.4529
8.5237
-19.332
3.1391
11.394
-5.7561
2.4823
1.5383
1.1518
-3.5939
-2.4833
-2.6587
6.4933
7.6129
-7.2545
-3.7036
-1.0798
-3.9448
10.148
7.4138
-9.5565
-0.12489
2.2806
-3.9389
9.8895
1.7009
-7.9643
-8.1453
-0.7077
11.905
5.5832
0.064951
-6.0238
-9.3247
2.5636
11.917
6.7946
-17.302
-2.7532
12.795
-8.0416
-6.1403
5.0338
0.39441
3.6538
-1.1452
7.5767
2.4776
-11.299
-5.0595
0.44682
10.305
0.95678
-4.6824
6.3006
2.2937
-6.418
-6.7186
-5.021
8.2387
-5.2647
6.5893
1.1581
2.8136
1.7326
3.3206
-2.966
-15.606
5.3224
1.4504
5.9725
-6.2532
8.2987
-5.7516
0.62142
12.535
-10.415
0.71853
-2.8468
-4.4634
1.5317
9.6392
-0.46328
-12.797
10.363
2.7143
1.8438
-2.2059
-4.815
5.6838
-2.5631
9.8173
-5.2695
-8.4828
-2.5199
-1.335
-2.7123
-7.8327
-9.7595
-6.857
-9.3699
-4.2554
0.66051
-12.189
-6.3935
18.294
9.3663
2.0304
17.786
2.8552
24.26
15.417
-6.3321
9.4009
-2.4843
9.873
-4.3765
-5.9462
12.234
-16.073
13.331
-17.911
-24.268
8.2215
3.0771
-4.4807
-15.488
17.143
-10.577
-6.5197
1.1754
-0.44742
-8.033
-9.9679
9.6859
-0.33288
15.338
-5.0112
-5.5995
16.267
1.9381
-6.7429
6.5183
9.6517
-7.5191
-3.5911
7.0719
4.66
-3.5952
13.432
-4.588
-9.5294
16.604
7.6028
7.2765
6.4864
16.47
-7.52
-21.015
-21.724
-12.513
9.03
-0.7569
3.4998
-14.291
-13.068
-2.7279
-6.6674
-4.8778
-4.4162
1.3823
-1.3019
7.9472
-9.8903
1.7663
13.45
0.22515
11.585
-0.87676
2.9315
0.71648
-3.6604
4.2668
-4.3739
4.2055
4.3569
-4.5026
0.93784
-0.49831
1.7424
-0.30741
-1.964
0.46735
-0.5815
3.6003
10.045
-17.917
7.1154
11.095
-11.713
15.655
-11.105
-0.033198
5.4167
-3.9056
-2.4999
-0.097733
5.1696
-6.9937
13.617
-4.4169
-3.7162
7.5367
-4.7131
-5.368
-4.1698
1.4564
-9.9626
18.099
6.1917
-13.439
0.50406
0.33243
-6.6409
-7.7787
0.26842
7.8421
-2.534
-3.1876
13.504
-16.205
1.8583
1.1486
-10.968
-6.1567
-1.8476
0.81913
-10.354
11.411
-12.726
-3.5105
7.4897
-26.149
11.76
8.553
-6.264
20.483
11.931
25.334
47.931
57.767
52.778
68.092
52.427
30.542
23.963
-23.159
-44.817
-63.258
-73.629
-93.888
-63.992
-62.822
-71.88
-34.357
-26.269
12.231
1.3065
5.6663
24.301
14.948
12.055
23.977
23.262
14.595
21.912
17.254
18.603
12.449
11.303
3.8105
11.667
14.974
1.0274
5.9409
4.4757
1.3136
5.6213
0.029626
-1.847
-0.17583
-5.3039
-6.237
-15.814
3.0164
-2.2991
0.86063
-0.90575
-20.255
12.122
-2.4212
-9.0739
-5.3356
-1.8657
0.69213
-7.1872
9.9809
-0.58036
-8.3778
5.4452
1.0199
2.5541
-0.98519
-7.3636
-0.046052
7.4835
-1.474
-4.9894
11.666
-6.0131
4.6311
0.091648
-13.669
8.2789
0.51474
0.59161
8.3221
-0.49149
-7.4532
5.7161
-5.8262
6.7105
-2.1688
-7.0389
16.59
-9.4359
0.13886
-5.919
7.7696
-3.0927
-6.5468
7.2774
-4.731
6.7611
-4.9698
11.462
-5.507
-10.193
2.137
2.8572
-1.5036
-7.7817
9.793
-0.4959
-8.4784
-5.636
8.7024
6.7455
-6.8038
-12.728
7.5177
5.8815
-6.4415
-6.9974
-13.683
11.265
2.0436
-14.228
-8.2529
7.9777
-8.4552
-7.7145
-2.1874
-27.486
-11.721
-30.808
-73.53
-133.32
-124.74
330.27
817.3
686.65
154.07
-358.83
-579.1
-510.76
-321.35
-130.63
-1.964
60.375
63.586
16.705
12.513
-1.4953
13.258
21.01
3.7599
22.034
5.3017
11.792
13.404
43.706
17.121
3.4277
16.391
-1.4404
30.966
-0.095543
13.484
8.6462
-6.8584
15.68
-5.531
4.8684
-0.19609
8.3516
17.591
-13.288
-3.3718
-8.4445
-7.061
18.962
-2.9155
-0.097493
4.6459
-9.5153
-5.2773
-4.7909
3.232
11.869
-6.8336
-7.6476
-9.6471
-0.34107
20.801
-11.951
-14.289
2.5288
12.231
0.31236
-15.335
11.757
5.9416
-4.774
-2.125
1.5357
8.0123
-1.9358
-8.1884
-6.7474
9.8801
4.1379
-6.4907
5.4834
5.3841
-6.9048
-7.4574
5.9978
4.406
3.2787
-5.1271
-1.7727
-3.8302
0.48854
-0.28741
-7.1963
9.3642
7.0928
1.8021
-13.506
2.0583
2.8581
-5.4304
4.6393
-9.8097
5.6288
3.9212
1.2702
-1.3228
-2.7903
-0.80354
-7.8247
9.3455
8.8706
-3.6232
-4.3598
-4.1901
-4.4852
15.881
3.0604
-13.417
-6.773
7.2125
9.8063
-3.1131
1.4451
-10.765
-1.1965
8.2637
3.008
-3.0007
-7.2011
13.586
-13.272
-7.0215
18.524
-13.9
-4.1977
-1.2515
2.9113
12.261
-5.5858
4.81
7.9882
-4.0957
-7.2145
-5.0182
5.574
2.9061
-1.4008
-1.0202
-3.5998
-0.030026
-6.3038
9.8569
7.5849
-10.094
5.1471
-6.5173
-3.6178
6.1806
1.0402
-13.095
4.7523
16.209
-15.986
-1.17
5.4759
-5.1083
-5.4414
12.05
5.1787
-4.7969
-1.9564
4.3686
-4.911
4.5625
1.8083
-10.567
7.0991
-2.6678
11.082
-9.17
6.4086
-0.63552
-4.6711
19.396
-11.547
2.7748
5.91
13.834
1.9425
-2.8948
-0.34785
-8.6332
17.588
-3.7422
-3.2217
2.3206
-3.7022
1.4078
1.4953
-7.5997
-5.7706
-7.2201
-8.956
14.988
-18.298
-12.769
-2.6851
-9.2461
5.9746
-0.38722
-10.238
-5.5616
12.735
3.1829
-15.584
-13.009
1.1546
-4.8111
-12.144
-6.2233
-0.571
-16.597
3.0771
16.022
7.2011
29.528
23.78
23.8
23.443
12.056
5.4082
4.0718
5.5544
-10.615
-13.283
3.4838
-6.3487
-17.869
-1.1887
-6.6194
-12.755
-15.095
-7.5981
8.015
2.3816
0.64709
-8.8623
-12.592
-11.75
0.66388
-3.4304
10.499
31.383
57.583
101.58
114.88
127.63
86.279
15.523
-33.053
-82.653
-101.81
-109.24
-133.23
-141.04
-118.57
-90.249
-58.644
-22.472
8.571
35.283
27.959
38.732
56.921
51.728
44.512
41.602
28.737
23.44
26.936
10.201
1.205
15.44
10.464
7.7437
1.3995
-5.3193
3.2915
-9.3171
2.5067
6.5129
-1.3055
-6.2561
-3.2529
-0.44183
-8.2814
7.3719
-5.1159
-0.98531
-1.8439
-3.5805
15.765
-15.001
0.032684
0.79536
-2.3261
4.2513
2.4383
5.8637
-7.0197
-0.97086
-4.5554
4.9822
7.3759
-5.9037
5.6851
10.58
-8.74
7.7822
8.9516
-12.894
-21.6
-9.1682
-13.829
-23.704
9.8354
-1.805
5.8418
-8.954
-25.437
-34.458
-54.03
-35.069
-23.829
27.371
28.831
51.537
81.809
51.263
54.17
26.223
17.874
3.3574
-22.844
-16.738
-29.438
-19.145
-13.896
-4.3065
2.8498
-12.404
-9.2044
-17.25
-2.8785
-4.9322
2.6646
4.4051
-2.7048
15.065
10.426
15.281
7.7385
13.937
-4.8532
-0.6617
6.9309
-3.2336
8.418
-9.3926
-8.3605
-4.0806
7.7189
0.37789
-20.814
3.1784
-2.5989
-3.5541
-8.3346
-8.4417
-2.4456
-4.6253
-1.163
0.75709
-6.6525
-19.168
13.305
0.95427
-7.7872
-6.8202
7.2817
-1.7683
-8.0636
7.2175
-3.8145
7.9684
2.3137
-1.0508
-13.394
-4.6209
9.9541
7.1339
-1.5503
4.2415
4.2641
-7.132
2.0018
6.4833
-2.9202
-1.7974
2.0195
2.5512
10.552
-3.2798
-4.1689
1.281
10.784
-0.76697
-5.7123
-0.80845
-3.185
13.042
-2.4303
-15.96
1.965
10.957
6.604
1.7151
-9.0709
3.1071
0.062215
-1.287
5.5755
3.4432
-7.5652
-7.1697
6.7724
-2.1081
6.6835
-6.839
0.68429
-1.4971
-6.1207
20.604
-2.9699
-10.925
-7.141
5.4176
11.816
-4.37
8.7051
-5.0918
-8.6966
-1.0851
0.06972
6.4367
-11.872
6.9863
9.3597
-5.7098
8.4306
-9.3347
-7.2755
10.558
-1.4333
5.0336
-4.0412
-0.40984
1.8216
-11.291
8.0799
0.55002
2.3701
7.0786
-1.5614
-7.6098
-5.4595
-0.086053
2.8224
0.90548
1.2503
5.7345
-9.0739
1.8846
-0.43051
8.9872
2.1077
-25.754
2.8344
11.168
1.544
0.76373
-0.57101
-6.0803
-4.8171
7.1534
-3.5654
2.3218
4.5146
-9.4103
-5.1681
-2.7497
-1.5056
9.2063
13.139
-11.467
-6.8178
8.9408
-6.5274
-3.9445
11.022
5.1778
-4.8254
-4.9116
-0.87566
3.9052
4.5202
-9.1058
-0.68296
9.304
4.951
-3.7838
-6.4562
-0.40239
-5.169
7.7399
5.2351
7.2732
-10.035
-5.2144
6.4979
-8.195
12.037
-2.2391
-10.426
4.7034
-0.65913
6.7027
2.6054
-3.2361
1.3202
-11.742
4.0149
-0.27579
14.055
-0.91852
-20.125
14.227
-4.0375
1.0559
-1.6604
6.0471
-3.2289
0.65697
5.4337
-8.2198
8.1848
-9.3181
-2.6941
-0.14717
0.85054
1.3394
9.1664
-4.5459
-6.7013
9.1896
-5.0938
-0.21602
0.4221
0.051498
-4.8472
6.7278
2.3512
-5.2295
6.4896
-0.68239
-8.6389
4.5887
3.9819
1.6079
5.1418
-15.35
1.6183
-12.758
5.5471
15.786
-12.042
15.608
-0.25643
-2.9661
-4.093
-6.2456
1.162
-2.2089
-0.47613
5.6605
0.13253
2.9837
-2.899
-3.8533
9.3099
-9.1869
2.6786
-2.7886
2.2177
1.7692
-0.994
-3.6338
-1.4736
12.19
-9.7452
0.91376
-2.27
-5.9705
9.553
1.189
-0.30958
2.741
-5.7052
3.6365
-6.1351
1.1204
2.2131
-3.7717
12.09
-14.295
3.7879
2.0013
-4.3222
-0.52582
-0.76835
13.62
-8.2647
1.1402
-7.6072
-3.0923
15.31
3.9417
-4.2819
-11.862
-2.3277
2.4837
8.4411
-0.3033
-5.5352
-2.8325
0.91022
-6.1555
8.5304
11.416
-5.4818
-4.3048
-5.5382
1.009
-6.0751
19.453
1.4287
-0.44297
9.8136
-1.6761
15.392
-3.3012
-0.68538
11.834
8.0698
11.261
8.906
16.609
20.308
-9.941
-17.964
-17.603
-22.357
-13.621
-7.2021
-18.733
-14.778
2.1799
2.098
-11.29
-12.406
5.5542
-9.2392
-2.8356
2.1064
14.251
12.116
-0.46092
0.63326
-6.7706
-15.4
-23.271
-18.02
-26.187
4.0809
18.301
11.329
11.585
-17.831
-11.877
0.15994
10.433
32.389
25.438
26.541
21.243
24.407
24.485
6.0876
-1.8863
1.6753
5.6272
7.7328
-12.425
-9.5214
-11.235
5.4728
11.904
-26.161
-2.2027
1.0751
7.523
-10.574
-15.337
-16.168
-10.809
-12.561
-15.738
-7.4397
-27.056
-6.4388
-17.303
12.565
20.876
25.881
23.147
-8.9802
0.19075
7.2202
5.1689
-0.80812
4.8939
13.348
18.071
-0.69759
1.9888
-5.5997
-13.485
13.413
-7.1729
-22.028
1.1739
-6.3143
-5.9293
0.68592
-3.1992
3.0963
-14.964
-7.1229
8.8674
0.70295
6.8405
-5.8017
1.8793
-8.1445
-10.881
6.2031
10.208
12.324
-12.405
-13.826
13.782
1.6828
1.1968
0.7772
-2.5829
9.9182
-8.141
-3.7515
7.2082
11.82
-2.8743
-8.603
-4.9041
17.211
3.7217
-4.9945
14.634
-9.9084
8.0414
16.041
9.0293
-6.8635
-4.9953
9.1702
8.5625
7.5063
-2.8148
-16.127
-11.282
14.232
-24.875
-13.842
-8.8001
-22.681
-1.3953
-6.7813
-6.2734
3.3932
13.707
-2.0432
9.3852
5.8649
-0.7141
0.88394
8.5977
6.4482
-5.0817
1.5519
0.59618
-1.826
-0.015818
3.7735
8.2009
7.3542
-20.223
0.71206
7.6396
-12.266
-3.7197
8.2816
5.3987
-9.0977
-5.2242
5.6931
5.8142
7.5843
10.791
-9.5409
-17.596
2.2147
10.845
1.7555
1.7315
3.7844
3.6947
-6.0723
9.9185
0.9259
-6.0936
6.8904
2.7558
3.8965
-5.996
8.3416
6.1314
-0.14199
0.13923
-1.3264
6.9589
11.5
-18.406
3.0575
-1.0383
-5.6742
8.3312
-23.541
-1.8301
-4.5377
5.6901
-9.9139
-16.75
2.2624
-6.0136
11.599
-0.90713
-10.022
4.4549
6.3223
-4.3198
-6.3093
-4.8069
4.8363
10.071
-12.644
9.4332
4.3728
-8.8606
-0.72795
-2.6606
10.186
7.2873
-0.79674
-7.9179
10.715
4.4225
10.237
17.553
-11.489
-25.073
-26.594
-19.522
-14.479
-5.6158
-3.2424
9.3974
6.9024
7.5966
25.241
21.11
25.052
17.017
13.234
22.372
1.195
-2.8767
-1.0838
-8.7429
-0.71679
-25.761
-7.4198
0.35896
-9.9139
-1.0291
-21.479
-6.349
-8.8888
0.23756
11.369
3.3059
-6.2806
-11.235
2.5575
-2.5736
8.4261
4.7608
2.0705
3.5061
-17.963
9.5005
15.276
-14.271
7.7183
-0.3177
-6.3481
16.999
-3.0736
-5.5491
10.096
-8.2176
2.3245
12.126
-7.3687
-3.4357
-1.9626
7.4773
-3.2713
10.034
2.4496
-11.69
-0.78321
-4.7771
3.6103
5.3075
-3.822
-1.6839
12.509
-16.207
2.2491
5.3093
-8.9717
-2.3763
-0.44957
-2.099
-10.391
7.7973
0.94962
5.0673
-9.9548
-3.2322
10.444
-1.7023
0.66264
-2.6145
-0.39178
-0.34766
1.5783
5.0475
-0.012225
-4.8832
-1.3292
1.3678
1.9054
8.1295
8.3643
-7.8039
-4.8711
1.3137
-1.3584
-1.8492
1.3701
5.4507
-1.9351
2.0672
0.4081
-10.74
0.28262
6.5669
3.6077
0.35185
5.6685
-15.319
3.1416
2.2037
-5.5013
5.741
-1.6884
12.187
-13.721
-0.72917
8.1969
9.8961
-4.6883
-11.391
-1.8878
8.01
-3.1563
-4.6076
22.933
-10.797
-2.7611
-2.2466
-9.3549
10.136
6.8412
0.0077892
-2.7984
-13.195
-1.7755
7.311
2.5162
-1.2265
1.9783
1.5026
0.04892
-1.2911
-9.518
8.0061
-5.0201
-3.7053
4.6118
1.0221
6.417
-10.216
-5.3202
14.349
-3.1856
-12.54
2.9993
9.5378
-5.6975
-1.0677
8.6281
-10.952
6.8927
7.9266
-11.344
-6.9002
3.2794
7.4197
-4.8232
-10.635
11.166
5.5244
-9.085
17.304
-8.35
-6.407
-0.31589
-1.9949
21.919
-13.693
-5.7014
4.4778
2.2
7.4304
-9.5591
-1.8128
-3.1308
5.4687
6.3925
-8.7521
2.0923
2.1315
0.73808
1.8953
-1.7751
-6.8164
6.2884
1.931
-7.8347
2.362
-0.63953
10.621
-7.1204
2.092
7.2906
-2.6353
-0.36958
-13.142
7.6225
7.0726
9.2166
-1.0291
-14.613
-1.2016
3.5634
1.2686
5.8763
5.7299
-7.4496
8.2955
-2.841
-4.3142
1.922
-7.8735
-4.95
-2.2419
-12.433
-0.74225
2.3845
-12.658
-20.281
-6.1259
0.050087
-3.7918
13.692
-0.35761
17.069
7.4138
16.059
14.326
4.1668
2.5701
3.4151
14.446
-2.8717
-0.42676
-0.62593
-2.1594
-11.255
-2.9639
-0.13717
-3.1419
3.9336
-7.0402
-3.9727
-8.3996
-4.1
24.346
-14.296
-21.371
11.557
2.7578
7.6167
-9.2535
-14.78
11.866
-7.1532
1.1644
14.512
-3.2026
-0.73745
-0.052837
-6.157
2.942
-0.64202
-9.963
10.765
9.7836
-0.7442
-6.6762
-0.11456
-1.1786
2.8278
-3.4454
-1.8989
10.714
-9.7763
5.0948
-1.4951
-7.1614
13.826
8.7876
-12.981
-3.9147
9.208
-6.862
6.8106
-0.67638
-0.084727
-7.5854
1.6661
20.933
-10.248
-6.1692
7.437
3.0337
-8.4052
-3.4656
-2.4796
14.981
-3.3646
-2.2601
1.2625
-19.446
15.156
1.4499
-13.933
9.2506
10.122
-10.405
2.3246
-5.4385
0.11459
-3.7022
-4.7603
5.9354
-1.9448
11.579
-17.925
4.7768
-7.4099
6.1036
3.8011
-14.5
11.906
-2.3662
13.887
-11.593
-2.8472
6.2574
-9.5088
1.9266
13.336
2.4844
-1.7515
-9.1596
0.73497
9.7516
-8.6387
-2.4944
0.67927
8.7615
3.7341
-3.2961
-3.2118
6.435
-2.8939
0.61825
2.0291
-9.1261
10.007
4.6829
-8.6918
0.70171
-1.4717
-4.0176
13.995
-3.5001
-0.86759
2.7772
-9.2575
-0.40839
12.227
4.8276
-6.0189
7.6076
-8.4873
7.1866
-7.225
-16.669
6.333
5.4697
3.3264
-0.97684
0.71403
-18.445
-8.0007
-13.766
-7.9168
-14.587
-9.6164
3.8788
-4.5581
17.327
0.91786
8.0645
12.779
3.135
3.7966
11.745
5.8624
2.7195
33.958
9.9506
-2.084
4.4691
-0.82726
1.2967
-7.5044
-1.6963
-0.66763
-5.9798
-9.5402
-0.052933
-8.4647
-9.1622
3.9712
-12.477
-2.2665
8.4213
0.14107
-1.1632
-8.3896
-6.3715
3.923
0.17288
4.3111
-2.9522
-2.0578
1.1983
5.2032
1.5468
-11.132
9.0921
-2.1628
5.466
0.5396
9.6656
-1.0948
-21.546
12.58
-8.6335
7.7649
6.7956
1.55
4.6288
-13.027
3.1962
0.57184
3.286
1.9152
-7.6312
8.7541
-0.6023
-9.987
3.0647
1.3588
10.064
-2.0162
-0.67121
-4.189
-4.1485
-0.21246
-7.5363
9.0955
8.5942
-8.8747
-9.8006
-9.9905
-2.0327
-14.805
-20.169
-0.79807
-25.536
-8.9004
6.963
6.5313
18.039
13.345
16.449
8.3427
18.657
20.821
4.1286
14.968
4.5208
8.7824
-3.9524
-8.4859
5.9581
-9.2115
-1.1292
6.6761
-9.4726
-8.3983
2.3456
-16.114
10.605
-8.5639
-1.8609
3.5901
-17.863
0.95252
-0.83989
4.7112
-9.4422
0.34513
2.5965
4.0228
-7.8088
-7.687
2.4752
6.8874
7.8893
-11.177
-3.8871
-6.8859
0.44966
10.256
-3.7462
-3.8346
-3.0123
2.4628
-6.8575
1.3784
2.4391
-4.8926
7.86
-1.1403
-6.0834
4.4566
-0.48738
-21.415
0.9564
12.351
-9.2244
-9.285
1.8929
2.603
3.3303
2.6654
9.2083
9.7642
36.938
41.506
42.29
65.231
62.12
54.572
34.606
7.8792
-14.486
-33.93
-69.383
-79.443
-82.216
-74.715
-66.291
-51.597
-38.842
-32.468
-3.5192
2.0046
1.6847
32.758
30.51
18.741
14.131
3.9944
22.41
22.827
28.086
18.122
-3.4675
10.399
29.821
14.734
-4.4733
12.115
3.0331
16.217
23.274
-1.5569
5.9223
-11.12
3.063
-7.4469
-11.305
1.4357
-24.896
-17.592
-22.89
-19.924
-15.241
-2.0028
-11.94
-7.8191
10.337
-18.86
-12.671
2.2731
5.9426
-14.969
-2.903
-16.731
-42.876
-50.409
-143.41
-113.4
336.38
817.87
688.19
157.53
-350.51
-580.67
-516.34
-331.82
-134.76
-4.8644
47.632
47.308
35.442
9.0034
8.0228
11.236
-4.7825
-2.0923
1.6487
-16.253
-11.246
21.208
51.761
67.456
51.553
56.689
37.174
20.496
14.991
-13.524
-0.68891
7.8196
-3.0582
-4.6687
10.133
-2.4101
-11.428
-17.286
-27.56
-6.7397
-1.6389
21.312
10.388
-0.2499
16.991
6.2224
-1.1561
-8.38
-4.5648
-4.2412
0.54739
-18.561
0.58544
11.286
-20.97
-3.5264
-2.4109
-1.255
-1.2729
-1.1328
10.737
2.7788
-7.4645
-9.5152
5.0129
3.9449
-9.7889
8.4359
-1.0933
-3.3541
3.7867
-4.781
6.0004
1.6396
-4.9916
-4.4123
0.58183
9.132
3.4553
-7.3364
-0.20892
3.7038
2.5678
0.039823
-0.17047
-7.9868
2.8529
11.583
5.4505
-7.706
-4.3979
0.18042
3.2501
13.394
-3.9284
0.81481
-4.4512
4.4876
8.4273
-1.9518
-6.0997
0.3772
5.4971
-8.4517
-5.7998
-0.63845
3.2119
1.4818
-1.9652
-10.067
-8.3031
-0.99667
8.8518
7.4896
-5.8034
-4.5463
-2.2349
2.6521
-6.2568
2.1115
4.1996
-16.651
7.8527
5.5668
-4.3156
7.5823
-4.2233
0.81009
-0.061265
-2.3339
-2.324
3.9231
1.2595
2.8484
4.0518
-8.0263
3.1428
-3.0011
1.1218
5.6434
8.1177
-2.8805
-5.9251
-4.2699
4.7235
12.657
-12.268
-2.5519
5.0748
7.2743
-3.2496
-1.742
-3.1372
-2.9377
16.587
2.2186
-13.208
-4.5037
-3.5048
9.6115
4.2483
-3.0131
6.4438
-3.8482
0.46465
-11.321
9.0688
13.207
-5.226
-8.2844
5.3655
7.191
-4.3983
1.9852
-1.7323
6.6785
5.5726
-23.319
-22.006
-11.467
-19.499
-1.6484
8.9092
-9.4054
-22.301
-1.3922
-21.221
-19.296
4.9876
25.862
48.547
29.106
42.422
32.926
12.477
8.6864
-8.1862
-6.376
-14.878
-1.0013
-6.0774
-17.708
7.2618
-15.433
-6.4219
-2.7827
-14.083
-1.3056
-6.7044
14.864
3.8084
-16.311
-1.9698
1.0414
-6.3251
2.3941
2.5695
-7.7358
5.7743
-2.8233
-0.69424
-0.46312
3.8857
5.7042
-9.9294
15.868
-1.7819
-7.4059
-4.8389
2.8649
-1.8561
-1.4511
16.183
-12.696
-2.9746
4.0596
5.682
-0.77965
-6.0825
-1.7966
10.177
-1.2961
-3.9828
-6.2689
-1.4481
13.037
-0.16085
-0.96825
-5.1715
6.2262
-1.7005
-2.1264
-0.079339
6.0701
-4.1337
-4.0744
10.876
-19.711
3.0293
10.446
-2.231
7.7205
-8.37
-2.2073
5.5216
-3.4019
5.2284
-4.9091
-9.165
8.9546
5.4024
-5.4338
1.8626
-0.29176
-3.5179
-0.46596
-3.6355
11.702
-9.1526
2.1757
11.501
-6.0992
-1.6959
-9.124
0.39817
4.0474
-1.1381
0.39895
11.966
-1.6411
-12.776
7.6211
3.0921
-7.4536
-2.6076
-0.54071
-1.1526
-0.51704
17.405
-4.9737
-2.4581
8.2556
-16.856
3.4448
-3.0915
8.7561
6.9171
-7.6856
5.6162
-10.031
-3.0838
3.5392
-0.29936
2.3409
0.46203
1.1106
0.46899
3.0987
-0.60363
-0.82017
5.5282
1.4575
0.83292
-6.5668
-7.8555
1.4594
4.7533
5.1385
10.238
0.34074
-8.0341
-1.4725
-0.0030072
2.9923
1.0602
-0.093352
2.3122
-4.3404
6.5289
4.6072
-0.30294
-4.2447
-2.0912
14.369
-12.449
5.3663
3.9966
-2.849
7.6202
-12.325
-0.87432
-9.3391
-19.816
-9.6855
2.0831
-9.8043
-13.564
-18.338
0.33556
7.9114
-17.491
-1.0634
0.72494
6.328
14.728
20.446
4.5137
18.789
18.672
0.22395
11.456
-3.9136
2.4159
-0.54824
8.6276
-2.7298
-12.418
8.3648
-9.1693
-5.8596
5.0807
-2.5081
-1.1295
-10.059
4.0674
1.8269
-5.3954
-0.37718
-7.4303
4.9892
-1.8905
-7.4675
3.791
6.9776
4.4335
-11.494
1.667
10.089
-9.5083
-0.8167
3.4044
-1.6114
3.112
4.6046
-4.3614
5.0772
-2.0311
-3.5458
3.5464
3.3978
-3.585
-2.4079
10.411
-8.1638
3.0678
4.0259
0.75064
-3.134
-9.4994
13.715
-1.5724
1.8494
1.6296
-13.424
-0.6261
-8.557
-29.824
-35.201
-35.53
-23.341
7.8282
24.161
34.618
35.938
45.417
50.421
24.619
18.662
2.9453
-26.288
-28.611
-5.7957
-0.91615
-9.0289
7.7171
5.7826
-9.2021
-13.862
-3.3455
-17.758
-11.619
-1.0608
-12.342
-9.2823
-0.057033
5.8449
-7.5447
8.7707
6.8141
-12.645
-2.8111
-0.34255
14.594
12.138
-12.173
-4.6308
2.5444
1.2935
-3.8818
0.66127
3.6547
7.4425
4.8019
-8.1302
-1.2134
6.6487
2.1085
3.7801
-5.0745
-3.5781
0.50063
-7.054
4.0511
3.7154
7.8934
4.0427
-2.1175
-7.6047
-5.6919
8.5403
2.0002
-10.045
14.099
-0.51913
-8.0988
-3.0702
-5.5138
13.559
-12.345
1.5665
14.633
-4.9873
-3.1521
-2.2853
2.1132
0.4671
3.2892
-1.3942
-5.233
2.0303
-1.0589
9.4162
2.0525
-10.827
-4.6154
-1.3858
2.6529
5.6025
6.1444
-0.1683
-4.0088
0.67229
-8.9814
8.1962
-0.93512
-4.1061
3.2835
1.8392
4.8977
-11.478
-2.5832
4.4532
2.8796
1.3835
2.6619
-5.9991
0.87824
0.8319
2.474
3.9631
0.36734
5.0945
-10.548
-5.0556
17.189
-6.8354
-7.246
11.661
-9.6301
14.612
13.112
-7.1802
-9.3931
-3.2697
1.0586
9.3008
11.056
-15.951
-0.027793
-1.2205
7.7944
-6.4059
-10.691
5.5121
-4.4169
2.9834
-7.6191
-13.069
2.3523
0.7945
-2.7539
-8.4192
1.3508
6.9252
-8.4832
11.397
-2.4883
-16.264
9.7683
10.882
-16.007
6.3723
17.942
-5.7207
4.3503
-8.408
-8.7205
-5.6741
16.072
10.165
-17.469
2.341
-10.085
15.072
8.4676
-7.1549
17.621
-12.485
-12.421
7.2705
4.4403
1.3161
-3.5655
-1.2146
3.7167
-7.2217
-1.8119
10.555
0.46625
-2.1317
3.6466
-3.3277
6.8712
-3.8634
-9.6745
8.8602
-8.5318
2.9541
2.8923
0.90601
-3.5927
-2.1993
-2.7153
-5.9145
10.493
-0.90957
-1.0869
-4.9242
7.8556
0.53274
-10.753
5.547
-2.9276
-13.849
-4.7281
6.0301
-1.2496
-0.52059
-1.0605
-2.1791
0.83949
1.3024
-5.5906
1.6174
2.3157
-3.1165
15.946
-6.2367
-3.9143
5.7653
0.14015
16.39
43.009
76.026
102.97
133.19
105.6
66.302
6.5728
-50.086
-85.594
-129.73
-137.27
-149.35
-135.93
-109.03
-81.113
-32.025
-1.5084
19.808
30.552
39.811
47.573
61.741
55.594
28.497
42.213
26.936
18.22
24.503
8.2905
3.0375
-7.1647
-17.938
-17.949
-6.9263
-0.97023
-20.448
-8.5246
5.7504
-8.835
19.992
19.103
27.504
8.9399
2.2755
11.753
-3.4061
5.2773
14.291
18.672
8.5495
10.906
-7.638
4.4983
-8.6612
-8.7594
5.5493
-13.491
-17.027
-7.5679
3.6872
-7.2924
-12.956
-15.139
-7.0025
-1.8144
1.2508
-7.1288
-5.9955
17.717
-2.228
-18.665
2.419
-5.3067
4.2246
6.3483
-2.3806
-5.5673
6.8053
4.1151
-11.93
14.748
-0.33987
-4.5859
-0.94765
12.567
-1.2724
-10.338
6.9209
6.1031
4.662
-9.0635
5.0993
-4.9355
-3.5567
9.1267
7.0298
-1.8804
-4.1056
1.511
-0.25727
-7.6801
6.7454
0.57025
-4.9606
-5.0484
8.6333
16.905
-15.526
3.2516
-7.6299
-0.63843
4.499
4.0917
-9.2972
-7.2742
15.132
-1.2938
3.2075
-0.45948
0.76733
-8.1053
3.5659
4.2586
2.9096
2.07
3.4757
5.9484
-19.208
-5.4992
9.1633
12.962
-6.155
0.95258
3.2911
-15.284
-12.145
-8.8759
-10.111
10.92
3.9539
-23.764
-6.8679
-23.824
-10.504
-3.8003
1.7378
15.314
11.089
32.987
25.016
20.697
20.43
1.252
6.1523
4.8065
-5.6638
5.0492
-1.8679
-6.7966
-7.0237
-7.8818
-10.845
0.53252
2.416
-23.503
7.8173
4.9896
-11.627
-8.0934
-1.1381
12.659
-11.657
-5.7954
2.1949
3.1535
1.5701
-0.64194
-6.7407
7.0002
14.648
-12.642
-10.921
6.0588
3.8457
0.89345
8.2834
-7.5707
1.2197
-0.99104
-5.3195
4.3683
4.8046
1.6056
-5.7124
3.5581
-5.9459
1.6506
5.8505
7.9897
-8.1384
-12.646
8.9277
-3.1543
7.2555
-6.7692
7.7379
5.0383
-7.8145
2.275
-3.3921
2.14
-8.2911
-1.3374
4.6067
9.6262
-10.144
5.5546
-0.3606
-1.4145
9.7317
-8.1344
1.6808
-4.4281
7.6337
-5.2729
-4.1558
3.6782
-2.8148
3.3899
8.1834
1.5635
-12.801
7.2049
-9.1785
-1.6027
11.903
1.0041
-6.747
-3.1287
25.141
-15.913
-1.6442
5.2516
-11.015
4.3868
-0.45137
2.6058
-2.3446
-1.9275
6.2048
-0.23132
-9.6337
-0.10594
-4.1208
12.797
1.7356
-7.6602
-6.0145
1.2914
6.6353
-4.5455
4.2693
-11.536
-4.1823
19.464
-0.45082
-9.8651
3.0984
-10.528
5.2089
11.796
5.4055
-7.3884
-12.523
9.4765
-8.0888
13.139
1.8356
-8.1008
-0.45719
-4.3196
20.218
-6.1479
-5.2483
4.4777
0.84
-3.7558
7.1303
3.8167
1.2227
-11.303
-4.01
20.539
2.1983
0.073474
-14.99
9.3034
-0.56163
-19.658
-11.57
-43.328
-34.504
-3.6067
3.2003
16.564
7.8505
14.289
-5.1468
-28.002
9.0233
0.059549
16.6
35.205
23.973
37.511
12.692
10.919
20.301
-3.8363
0.92179
-3.3181
-4.247
1.0762
-12.648
-11.611
5.4553
-10.433
-19.592
-11.923
0.029025
-6.4622
4.2041
-2.6017
-16.923
16.848
-8.0717
-1.3424
2.0989
-6.3062
-2.479
-5.6422
4.663
-0.43213
0.23935
-1.9611
-2.7094
10.253
2.1393
-11.049
4.6499
-2.9247
7.1791
0.25753
-6.8043
5.4414
0.96564
17.241
-3.9942
-6.7309
9.3526
3.4679
2.3888
7.6616
0.061894
3.085
2.5355
7.4077
17.962
-5.578
-1.0761
-11.12
-19.024
-1.0712
-5.0009
-12.326
-29.714
-7.4126
-4.1301
-9.7839
12.382
-7.7474
20.799
6.0248
-8.5316
15.535
6.57
13.507
3.9362
-9.7112
-0.93789
6.6745
-1.5812
1.3414
-0.60565
-1.482
3.305
-5.2171
1.7125
3.4119
7.5147
2.8185
-6.6111
-2.475
-22.898
14.903
2.4214
-0.053964
10.865
-11.179
8.7586
-3.0877
-0.45321
-2.9033
5.7774
-5.0946
-2.7215
8.9298
-11.37
10.134
-12.671
-9.7651
10.907
-10.932
-2.7615
-22.892
-3.2247
3.4719
-19.356
-10.234
7.9337
12.492
8.7629
18.973
0.087285
11.729
15.894
0.37271
8.8449
9.302
-2.258
7.4412
-2.5599
-5.4262
10.281
-11.825
-0.13746
-8.0997
-3.5212
0.48854
-12.792
0.63747
-5.8277
5.6674
1.2445
-8.5535
-8.9734
3.5623
12.789
-6.302
-1.4954
-2.6359
-7.0985
10.613
9.7102
-6.3016
-5.8806
-0.55781
2.7135
4.8412
-2.5919
-3.19
4.1452
1.001
3.5633
9.3353
-8.2203
8.4177
13.07
2.7741
5.294
-6.8284
-0.63081
-0.88558
9.8018
1.2538
-2.1762
4.1818
-1.7623
5.8785
16.542
3.5013
-16.228
-4.8465
-0.90394
-4.7806
-1.219
-1.74
-10.603
-17.075
8.6102
-9.9831
-10.625
11.958
-34.125
-38.252
-28.349
-17.339
-9.4626
-3.9217
4.1201
8.8446
16.866
21.629
13.032
26.24
43.154
14.071
13.216
17.725
6.6655
-0.19393
-20.466
-2.9645
18.28
-13.762
5.6025
-8.9381
-9.9918
14.589
16.395
18.653
12.447
-7.9662
-25.141
0.5937
-20.855
-11.8
-16.031
-13.601
-5.2574
1.5586
6.096
-7.9758
-8.1985
-10.865
4.9495
0.589
16.839
0.91142
-1.736
12.817
-4.0129
8.1379
2.2391
-3.4783
-2.2218
-14.196
3.0299
2.8346
-6.792
0.92391
-6.3781
2.3554
-1.5874
-1.5321
6.2251
3.9012
-2.0453
-3.5692
5.9715
11.626
-6.7275
-5.3731
-1.2696
-4.8882
11.387
7.0378
8.9961
-9.0995
0.61738
5.7528
-1.908
1.1227
6.4286
-1.6246
1.3733
-8.9297
-9.0194
23.314
-0.17802
-8.4431
-7.8313
1.9751
-4.1134
-6.7154
1.9953
12.066
3.1091
-11.083
-3.7516
0.45022
4.151
-13.715
2.2633
6.3595
-9.0331
10.561
2.4088
-4.0286
5.9122
-5.9021
-6.7232
1.9236
2.9218
-4.0266
5.2949
4.6775
-0.94417
-4.7807
-9.1035
9.5794
8.1169
4.3085
-5.6302
1.7726
-1.9017
-7.9184
8.7893
13.809
-8.1297
-7.3483
4.5941
-20.874
-2.2013
-8.255
-5.8888
5.1953
-11.544
-4.9463
-0.57989
-2.6288
0.37921
14.593
20.64
1.8186
-1.1143
14.598
5.5613
-8.0483
15.54
17.227
4.9232
16.129
4.1898
-2.347
-6.5035
-3.0863
5.4797
-15.78
-6.7023
3.1225
1.023
-11.894
-12.424
1.6119
0.93558
11.309
-19.028
-10.509
-6.3094
8.6817
5.2832
-1.5211
6.4483
-20.429
-6.2619
10.744
7.5715
-9.1759
4.5641
4.4535
0.76252
-6.6156
-6.6636
9.1307
13.252
-12.642
3.3838
2.7139
-19.051
5.9523
3.3843
4.8848
5.9761
3.2978
-4.3507
1.505
0.067066
-0.34558
-2.6523
-1.7703
0.54927
5.9013
-1.3874
-3.8162
3.7895
-6.1524
3.468
-7.5626
9.5681
5.8022
-10.722
2.9674
-7.0717
-13.72
-1.7151
-8.5113
-12.284
-10.971
-15.716
-1.1885
-11.19
0.4527
-0.30038
21.103
28.563
15.822
14.884
8.7889
23.367
0.79473
7.207
-3.3376
3.7487
11.568
-5.2174
-3.9032
-4.209
5.9217
-12.299
-2.898
0.92722
-3.0158
-2.0308
-7.4182
-8.847
-6.0319
-2.739
-2.2455
16.93
-2.0013
-17.337
2.5258
-1.2096
-4.5013
0.28972
-0.33657
6.524
4.4317
-5.2561
-4.5629
0.99728
4.2675
-1.8485
5.6184
-4.8827
-13.92
13.918
-2.3551
-4.2889
10.232
1.1378
1.801
-8.5676
-2.4397
-0.5679
2.2169
2.3032
-0.14062
2.481
-2.5156
12.517
-2.5038
-12.029
5.2892
3.0115
-8.0779
6.2181
-0.82144
-11.506
11.807
4.7423
-0.54333
-4.4493
-10.16
3.441
1.214
-1.0311
9.1435
0.30721
-3.5242
1.2312
-5.021
0.082936
3.6231
7.6499
0.97138
-11.508
-5.6752
-2.7778
8.5872
9.5634
2.0988
4.5075
-6.7339
-7.6379
1.6768
2.1426
3.0596
0.55762
-3.3983
0.76761
1.0228
1.9914
0.2984
3.4781
10.294
-16.257
-1.4624
13.025
-6.2557
2.1606
-3.8955
1.5955
-1.5185
-1.6173
3.1265
-9.1529
-2.5437
4.71
9.2844
-7.1258
-14.104
7.5217
-5.651
-0.61985
5.9526
-5.9793
-0.4192
-2.9732
12.002
-5.9445
-16.748
14.093
-2.3836
-11.895
7.9945
-1.2208
-2.9936
3.0798
-4.9581
-7.5908
0.35095
10.359
3.7495
-12.455
-9.2644
-23.029
-21.931
-9.4652
-9.6837
10.467
0.45612
4.577
11.418
2.8758
13.857
31.874
69.886
88.55
84.782
92.645
69.679
25.21
-9.9319
-56.089
-77.204
-87.766
-93.727
-87.09
-72.055
-50.277
-42.863
-20.299
-3.4393
7.0492
1.4704
9.5531
31.407
19.892
10.777
18.277
15.547
9.8032
19.996
16.347
16.944
11.127
5.3995
12.955
8.0961
5.2407
8.5103
-6.5498
-0.5755
11.364
0.68593
3.5821
-1.116
-11.674
-6.2988
-2.9184
1.9371
3.8712
-10.072
-10.354
4.3609
7.6303
-8.8608
-13.205
-1.5375
4.394
6.2798
-8.7051
-19.237
5.8873
2.751
-0.049896
0.30237
-0.97802
14.93
-7.5017
-13.393
-2.5071
9.4866
-2.5069
2.9069
7.5903
-6.8894
-0.19817
5.8161
5.5158
-16.392
8.726
8.2408
-5.1393
-3.0544
-0.72774
10.357
6.1466
4.0714
-4.9988
7.55
-11.098
-10.925
9.9074
-5.7523
0.0402
11.389
-8.0684
5.247
16.481
-15.896
-0.90661
4.3694
-13.905
8.1339
7.538
-4.5671
0.95235
-8.2389
0.88887
-1.3943
3.7946
8.3916
-12.101
14.17
2.9585
-25.733
14.152
6.5834
-3.0508
-3.2453
-8.4444
15.33
-0.95824
-4.393
-9.8809
-1.6686
9.9702
-6.104
-2.2548
-0.57965
-2.4552
5.687
11.034
-19.34
4.5616
1.7969
-8.6207
7.2531
-10.718
9.0827
-0.49934
-8.6015
-5.8064
-1.0765
4.3728
-2.8898
-4.3293
2.9833
-2.9309
-6.4595
2.8515
-6.8344
0.7571
-7.6783
-11.21
-2.7803
-11.173
-5.5142
-10.048
-17.5
-45.797
-112.42
-172.89
60.868
623.52
832.97
442.23
-128.82
-512.24
-575.32
-446.11
-213.26
-47.474
49.995
73.955
47.713
34.541
-2.2424
0.56497
-6.1412
17.866
0.39685
12.326
18.421
12.681
30.85
13.938
18.667
16.655
9.1066
3.6745
10.18
16.632
18.546
5.1025
1.2477
-0.99073
6.7958
3.2321
-1.5584
6.6262
-4.132
0.99452
-2.5252
3.4729
1.6189
-5.6876
3.7099
-3.1342
-0.13088
-7.5595
0.05207
-2.6792
-6.7273
10.25
-0.68563
-1.3629
2.033
0.656
-7.8079
-4.2739
3.293
1.8781
2.0323
-0.42351
4.3105
-12.015
-1.8273
4.6647
-5.554
7.5555
-7.8024
2.8586
10.543
-13.382
1.9898
3.3192
-1.5873
5.7527
-1.2093
-3.4439
7.5564
-1.0422
-8.4545
9.1928
-11.811
-4.4818
9.2834
-1.5244
6.1172
-3.704
7.452
-5.3027
-7.3285
3.4012
5.7547
8.4463
-10.282
0.71459
-10.586
-4.5905
9.9253
-2.2538
6.5668
0.98635
-10.389
17.459
-3.7529
-8.8361
9.41
-13.935
9.3095
0.41804
3.7753
0.64755
-3.1815
18.454
-9.7375
-0.30218
-9.1361
-5.498
17.439
9.7174
-5.2516
-1.4577
9.8008
-13.631
1.5899
-1.6789
4.2888
5.6908
-8.1372
9.3213
-2.5578
-13.252
5.4503
5.312
-8.6815
8.2022
7.2609
-0.9045
-11.387
-0.9707
-1.0048
-3.831
-8.891
-8.0859
5.009
-11.928
3.5554
-10.154
-19.173
-13.392
-25.813
-28.874
-32.922
-12.724
16.882
37.532
48.711
42.007
44.895
17.171
-4.1192
-2.7229
-14.704
2.0417
10.365
-7.652
-7.2921
3.4924
-9.7949
-19.531
-17.519
-4.5321
-7.0658
13.075
8.9578
7.2884
22.417
-11.807
12.415
4.3804
-14.753
1.3088
-7.3374
3.3785
-6.9473
4.4178
-6.8593
-4.3774
7.1334
-6.6811
-7.201
-3.1595
4.0261
-6.1056
18.74
-1.1412
-20.568
6.3129
3.4062
1.4543
5.0944
1.6127
6.286
-14.064
-0.76717
1.0708
-7.2182
13.406
0.41909
-3.0216
9.8457
-5.3045
-2.092
2.956
-10.734
9.2384
0.85013
-4.1332
-3.8536
-5.4106
13.031
5.8345
-4.6895
-8.2687
2.2563
9.9978
-9.2793
9.1797
-7.9557
-7.7213
10.014
0.37454
-5.3695
-2.5579
18.297
-11.035
2.6989
-1.3031
-11.653
3.115
-3.2236
10.565
1.4868
-5.1154
3.6892
1.6224
5.9314
-11.131
-3.8151
3.7364
-4.7289
5.9618
1.7842
4.0415
-5.9258
0.26094
-8.3402
2.7146
6.7773
-5.9154
9.258
-11.715
8.6341
-0.24192
-8.1129
11.566
-9.9613
13.748
-6.6957
-20.641
7.0785
-0.56926
0.34622
10.426
0.43866
4.2771
-1.031
-12.136
5.4175
-6.5545
-1.2348
7.2408
0.76425
12.364
-2.0438
-5.9279
-2.7261
-2.4064
11.202
-5.2977
11.743
9.0456
5.0662
17.381
10.927
5.9656
-3.6923
-12.647
-13.597
0.42982
-12.948
-8.2044
2.9717
-6.9391
-0.46769
-2.6178
-8.4955
-3.5067
-20.949
0.45048
2.1221
-11.618
10.849
5.8276
1.6424
-3.2979
-4.1752
-1.0603
0.79089
4.0015
4.6537
-6.9001
-6.7834
-1.9664
9.1601
2.7968
-11.247
13.089
-0.86165
9.7799
13.166
-1.6791
4.9338
4.4484
12.551
4.9123
-4.5487
-3.071
3.7685
2.5123
2.4306
-12.861
0.77151
-3.2859
0.58539
2.0811
-14.898
4.32
-6.8435
7.3171
5.1524
-6.9732
-3.8812
-4.167
-2.749
1.5958
5.131
-0.61986
3.4645
-8.3225
-8.7298
18.863
2.8386
-5.2861
-5.9172
-0.89557
13.16
-6.6872
5.0255
-6.4875
0.86344
6.4235
-12.156
-5.0955
6.5383
14.542
-5.8146
-0.58523
-2.7665
-1.8156
-6.4414
5.2844
21.143
-22.492
-0.3846
3.3985
2.6272
10.597
-17.453
1.3332
4.8509
-2.1259
2.3452
-3.3377
0.63442
9.291
-6.8968
-9.4389
7.1947
4.1809
-6.1867
-1.593
10.282
2.4022
2.3651
-2.9562
1.0986
-7.0761
-2.0998
28.044
-13.102
9.9114
0.39137
-19.169
18.948
-6.2354
5.7849
0.45051
-8.5482
0.3771
0.87756
-8.6552
-6.0282
4.0519
4.5446
-4.5125
-21.232
-5.1012
-2.0403
7.8819
2.4641
-6.6737
4.2924
-5.2657
-5.2564
13.47
-8.9015
-5.8784
8.1502
-4.7639
10.59
3.7026
-6.8447
4.7028
8.6306
-0.11273
-2.7777
3.2176
1.0203
-9.9419
8.916
9.2591
-7.1253
0.70128
-2.2095
9.8608
2.5596
5.7832
-1.0966
-12.187
20.664
-11.219
-3.2047
7.7264
-7.7335
-0.50488
-22.522
-3.53
-6.3739
-13.956
-6.7566
-15.593
6.7721
2.8647
-5.7364
3.7278
3.1106
4.6489
19.108
11.19
15.134
11.002
10.453
12.847
-12.981
2.6601
9.708
14
-15.095
-4.5795
11.226
-4.8729
-2.4055
-13.238
-7.0803
-4.2378
7.0756
6.4101
-12.247
-7.4896
-3.7307
-8.3561
3.85
-1.5936
3.0399
1.983
-1.9035
8.1122
-13.584
4.0902
7.177
-13.211
0.59839
6.0784
4.6474
-5.6123
-6.6423
0.58641
5.4189
9.854
-4.1897
2.2261
0.011349
-11.032
11.256
1.4083
-2.2197
-3.4496
-3.6266
9.7912
-4.8132
1.4377
2.7073
-3.9742
-3.5182
9.687
-0.5875
-11.244
14.324
2.0093
-3.922
-7.6037
-0.47728
-0.13593
10.063
9.3709
-18.257
-4.5284
8.0017
8.1582
-1.461
-11.599
-1.8389
0.13412
7.3797
6.8409
-5.584
-2.1952
-6.4302
2.5316
1.8148
0.90787
-7.961
22.448
-1.1303
-21.144
16.362
4.4989
1.087
-9.4164
-9.0376
7.4377
12.845
-5.9713
12.807
0.77117
-12.11
-6.9816
-18.51
-24.648
-8.998
-0.50267
-18.18
-7.1255
-15.996
-4.5438
4.4997
21.97
26.367
28.855
4.5013
-6.6574
6.0837
-0.5313
20.581
6.2821
28.504
8.5311
-5.0476
8.3653
-9.4466
-3.1093
-6.267
2.0385
-3.5054
-19.508
-6.2728
7.7969
-1.7645
-9.1877
-6.9296
-3.807
-1.8408
-2.8285
-4.4244
10.405
2.2441
-3.5388
4.9459
-7.2283
3.826
-7.3592
0.15062
7.0668
-8.2694
11.471
-6.0989
2.1861
5.4135
-15.87
12.122
-1.6798
-5.14
11.412
-6.9312
4.3045
8.2378
-8.6608
-5.162
-4.9444
-5.6424
6.9925
4.6628
1.8209
2.5162
-4.0575
-1.2574
-6.2597
-2.3033
7.7808
-6.7812
-1.7293
11.487
3.7937
-11.434
-7.2444
9.7055
2.6886
-4.4802
5.0219
1.2258
-7.8872
4.6116
7.253
-4.8264
0.87062
-4.0432
1.2122
4.4023
-3.1817
0.78309
-4.8839
-3.674
2.9967
14.115
-8.4384
-1.6452
6.8141
-4.5688
-8.6951
-5.4637
3.8005
3.9462
12.766
-3.7588
3.6055
-5.081
-16.93
10.941
4.9597
-1.1424
2.4031
3.1545
3.8151
-8.7751
-1.481
-0.34156
-1.9264
10.394
-3.3045
-0.8097
-4.2933
-7.2945
10.777
-2.8536
7.5459
-4.0413
-2.1545
8.1445
-9.252
0.84695
-12.899
0.55245
9.8045
-1.186
11.294
-7.6106
0.14683
-0.17684
-1.7083
0.98668
-8.2932
13.167
-0.9364
2.5351
9.4007
-3.3162
-1.3289
1.9823
-7.899
6.168
10.696
-4.4737
4.6244
2.9826
-1.8166
4.3446
0.33678
-2.7539
7.2633
-2.3962
-7.1275
2.4283
0.090429
-1.0284
-4.5978
-14.004
-25.27
-30.953
-35.447
-36.931
-15.41
4.5221
15.451
38.763
36.296
33.277
28.816
15.369
8.9721
-20.618
-3.2235
3.3265
8.2395
-3.6089
-1.0519
20.168
-4.6522
9.7787
-2.8814
-3.3146
-0.61304
-7.4655
-1.7957
-4.0215
6.1592
1.2283
5.2857
3.3335
6.7957
-2.8134
-11.819
-3.8445
-10.56
-19.585
1.2173
-3.9096
-19.261
-8.9094
-13.261
-1.522
-5.383
11.38
2.4904
-6.2558
8.7998
-2.7326
4.8218
-1.6432
6.1075
-0.37221
-8.0998
8.7708
4.1585
11.739
-17.903
7.4592
14.726
-17.804
12.774
-5.4152
9.3489
1.3954
-5.1118
8.8725
-13.238
19.387
-7.6075
-5.6725
14.821
-9.4288
-6.2561
2.2479
9.9369
-10.739
4.0165
5.2932
-4.0486
1.9564
-0.046093
-9.656
5.5123
4.0071
-1.2739
9.8992
-4.5486
-7.6393
8.2278
0.66623
-4.3812
5.5216
-22.286
8.5522
10.077
0.34068
8.3978
-6.0111
2.3339
-5.344
-6.3655
-0.39584
-4.184
12.227
-1.2525
-9.7769
2.4786
2.3407
5.0007
-9.2665
12.726
1.2748
-3.0381
3.2193
-8.1911
-6.409
-1.6445
15.449
-9.1532
-1.5346
10.578
-4.2613
5.3133
-3.5239
3.6024
-0.84091
-2.8406
-3.2159
-7.6322
5.1453
2.4857
15.564
-4.3184
-6.1731
4.5582
-5.4356
0.37652
-1.6798
4.8309
-8.2447
8.4001
2.7616
-11.679
-2.2447
10.464
-2.1957
-12.071
12.693
-11.815
6.1159
-17.159
-1.3875
18.885
-8.3016
7.2465
-14.333
-0.55959
1.7394
-3.4488
9.0917
1.6169
-3.2965
-6.5817
3.7078
5.0191
-0.064638
1.3668
-0.68575
-3.6112
0.42099
2.3652
-0.92671
-12.897
1.9783
14.085
-0.87391
3.2147
-2.3728
1.8306
1.6785
-4.6639
2.9723
-1.0279
-11.766
11.034
9.7668
-14.956
7.7927
1.014
1.8212
7.9751
-15.32
5.5167
9.9738
3.735
-9.4088
-0.23645
1.8839
-5.9522
12.321
8.0462
-7.6861
-4.0654
5.9866
-4.0298
2.1231
5.9993
6.7381
-12.015
-6.7773
-12.989
-24.268
-13.667
-25.849
-21.557
-8.7847
0.44642
17.782
10.364
25.456
33.509
15.173
26.75
22.61
18.203
10.892
6.5111
13.416
10.11
-20.153
-18.259
-7.0675
-17.042
1.3453
-2.3387
-7.0048
-9.0467
-7.5813
-4.7637
-3.3523
-3.9999
-6.3019
-13.874
-3.1839
20.031
-16.459
-4.2885
-1.2228
-10.171
0.51346
-5.07
-7.449
2.5709
3.0013
2.4819
1.6888
-6.6985
10.104
-1.8285
0.97822
-6.9018
1.7316
1.0094
0.41424
15.605
-3.8632
-6.489
7.1343
2.3312
-1.2157
12.059
-2.4407
-5.646
5.1872
-1.7656
2.6072
-0.087119
-1.8855
-0.92964
8.4394
8.8623
-7.3962
0.46892
-1.6359
-0.52439
-8.2067
5.0019
-1.7228
1.5622
6.8198
-8.0616
4.8353
2.7806
-6.9655
5.8193
15.607
-22.74
-6.5549
23.543
-2.9985
-7.3042
4.5924
-3.6844
-2.8236
3.9402
1.7261
-0.21412
-0.17881
2.7083
-1.3556
1.0941
8.8998
-5.6055
1.3209
1.4119
0.038662
3.0974
-3.1193
2.481
1.1979
9.3755
-10.113
-3.3462
10.121
-8.1382
0.86303
0.45562
-16.824
-18.748
-28.272
-33.304
-6.8929
10.524
8.994
-0.42818
9.9564
0.46459
-20.219
0.79537
3.9147
19.537
28.414
19.306
37.218
21.515
1.1505
19.34
5.1656
-12.829
8.6185
-8.089
-3.4351
0.096523
-10.948
-2.4561
-17.044
-4.9902
-14.858
-0.95732
13.286
-23.259
-9.5231
14.083
5.5821
-11.742
-5.4239
5.7168
-7.4535
7.274
10.74
-7.4922
-7.3564
-7.9741
8.4659
4.1033
-13.757
-5.2123
-1.8363
-19.572
-11.159
-1.7294
-2.1256
4.6321
10.722
3.7661
0.10039
14.214
5.4816
9.2961
-9.1484
8.7831
6.8363
13.05
26.405
-11.34
9.9588
0.69262
-2.8402
-14.599
1.9435
8.5384
-29.073
-6.1911
-28.947
-19.829
1.5223
-28.682
-4.1418
9.177
9.3287
18.787
18.612
11.602
19.46
18.686
14.166
-1.7914
-15.279
16.564
1.887
-2.8628
13.49
-12.18
-0.86748
3.0951
-12.269
2.7186
-18.347
-7.2102
8.3039
-6.824
4.4586
-1.9107
-7.8039
-3.1046
-0.2668
5.651
-8.2771
-0.44932
1.7301
-2.4015
1.8604
6.2845
-9.0766
4.5838
12.906
-23.596
2.9544
11.96
-9.9181
-8.8667
13.943
-2.8771
-7.0011
11.565
7.0295
-15.867
3.269
-2.6781
-7.3625
7.8216
-2.6568
8.5372
-12.963
6.4509
4.7481
-12.53
-13.872
-0.02434
14.957
-5.3477
-5.1222
-7.7308
6.573
-4.0881
-9.6102
10.123
-6.6668
2.7053
8.5816
12.532
-15.517
-5.3503
3.9384
-5.3144
17.765
0.71174
43.976
79.839
100.77
111.75
98.697
78.205
20.223
-26.072
-75.867
-121.2
-145.62
-162.08
-154.38
-99.233
-79.284
-42.54
-3.8836
18.29
55.511
47.751
56.321
56.365
48.125
38.145
53.108
40.512
39.845
39.917
2.8436
-3.6312
-14.749
-29.981
-18.977
-4.0166
-15.067
-1.861
-15.742
-6.5945
-6.7335
-15.661
1.3175
-3.4726
-2.8211
-3.39
6.8097
8.3918
-0.20344
7.8089
14.052
2.8243
-3.1012
0.14999
5.7268
-1.3719
2.9062
1.6573
-0.84203
-1.0196
8.0242
-5.1588
-5.1453
9.7201
-0.70288
-6.1709
-2.5881
14.124
-7.6764
2.9937
3.5622
1.9658
6.2184
-12.973
7.1027
9.3076
-6.0569
-2.8547
3.9667
8.8374
-2.1578
-4.8729
14.841
-6.1919
-6.4893
-6.9691
-38.361
-14.289
-1.1265
-9.7751
8.2272
-12.542
-39.616
-28.642
-24.348
-11.522
6.7678
31.811
44.563
40.168
40.007
24.25
8.4889
20.671
16.153
11.025
3.0618
-14.358
-2.1676
-6.8287
-14.067
-4.2559
4.5865
-9.71
-14.608
-14.376
-0.59116
6.933
-5.0993
-6.9614
-12.244
-7.6695
3.3724
5.5206
-17.722
-2.3247
14.621
-0.98044
-12.992
-15.203
19.54
13.771
-7.8966
-6.8396
10.248
9.117
-21.844
6.1536
-0.40244
2.4536
20.647
-3.0518
6.162
-12.396
10.165
6.8882
-8.0527
18.372
-5.3418
6.9889
7.9775
4.9761
0.35291
10.42
13.92
-3.1453
16.37
3.2546
-13.809
-18.457
-4.096
4.4068
-19.022
-27.62
-12.522
-30.984
-21.773
4.5132
-14.846
1.8168
-6.277
-0.63035
14.376
-1.1278
12.38
-8.3112
3.496
14.781
-3.509
6.8584
-3.4633
6.7355
-0.80229
-10.264
2.6169
11.981
1.6806
2.3577
5.0371
-4.0921
3.0128
-7.3537
9.9254
0.39792
-7.3804
12.593
-11.483
-1.4989
4.7353
-9.4486
-5.628
-5.9641
11.238
7.0301
-6.2221
-11.533
-3.5861
3.1199
24.501
20.629
19.838
48.586
36.4
66.192
71.503
39.654
47.971
8.3344
-20.08
-34.176
-69.936
-80.778
-83.378
-76.171
-73.101
-42.235
-38.669
-32.395
1.3688
4.1783
9.056
17.192
22.076
18.076
26.558
21.347
15.483
23.715
14.477
28.516
12.601
8.8534
4.256
1.3106
17.011
6.7182
20.363
-7.8143
-11.029
-3.9312
0.98846
-2.1283
-17.249
1.3574
-5.1751
-15.803
-9.9885
15.212
5.9411
-16.677
-13.223
-6.5268
6.0039
1.121
-4.4547
8.8988
14.675
-19.195
-13.149
14.154
-4.7093
5.7279
8.2754
-15.185
-5.6687
6.489
8.1898
5.0496
-15.21
1.6082
2.3733
2.2006
10.259
0.82439
2.5107
-5.7937
5.5666
8.8325
-0.48449
9.9496
-0.64298
-0.77077
2.0195
-10.344
6.7781
5.7621
-4.1532
-4.3061
1.2429
-13.872
1.1727
7.9543
-8.9902
9.8357
-0.71726
-9.1333
1.0605
7.9707
-8.4459
0.18134
3.2174
-1.4738
1.0134
-3.3265
-1.6746
-4.6018
12.46
-9.6681
1.2954
6.9015
0.73261
0.42032
-14.381
5.0265
2.8007
-4.8533
-1.549
14.234
4.9684
1.4752
-5.1749
-15.959
7.4094
-1.0256
5.3845
1.1597
-3.4032
1.3446
1.0239
2.5139
-10.89
4.3422
4.5947
2.9399
-2.8338
1.7513
0.343
-6.8206
-0.81325
-11.147
16.657
1.0969
-8.0315
10.444
-19.172
1.2231
10.078
-6.0463
3.8046
7.0238
-1.6482
-8.2481
3.737
2.7978
-5.9785
-7.4244
4.8842
21.398
-12.367
-1.0501
3.4592
-10.408
9.9364
1.1773
-2.4398
-9.6642
8.4577
13.034
-5.0855
-1.8721
-8.2075
-0.1344
17.994
-8.2121
-8.5519
-3.8461
4.5611
15.308
-5.2109
-13.639
-4.8464
10.919
2.5398
0.56329
-0.98882
-3.1858
1.6002
6.7053
-16.272
-4.7357
7.6186
-1.0143
-2.1427
1.017
12.891
-13.105
-8.1648
4.4629
4.1399
11.592
-6.6485
-5.5276
5.3491
-3.1764
7.1281
-10.123
-0.6369
4.8803
-2.3133
-1.3744
-0.9795
6.3508
-4.5007
3.0318
3.6907
2.8465
-12.829
3.2865
4.403
-0.088991
4.2431
-8.5904
9.7463
-4.7071
-10.078
6.1458
8.0769
-1.378
-10.966
4.2701
9.0124
-4.7743
-6.0857
-1.0789
13.182
-3.4119
-5.7711
12.732
-8.3294
1.7344
0.0030393
1.9187
-1.1009
-9.3605
4.8935
-2.8949
8.8937
1.3945
-1.2918
-5.0626
-4.3072
12.697
-6.7991
4.1785
5.1899
-3.0821
1.295
-2.7609
0.18188
-6.5396
-2.1248
9.4967
-8.1603
-5.3201
15.501
-3.673
-1.798
-7.2101
10.488
-4.0895
-10.126
10.049
-11.589
-4.1234
8.2276
14.773
-18.886
4.8487
-3.8599
-12.14
10.776
-4.6318
14.528
-9.0902
0.27776
4.8243
-7.8628
5.949
-2.8763
-3.7009
-0.65811
14.125
-2.4609
-8.2794
-2.2786
-5.305
15.016
-2.2809
1.4665
2.4722
-5.3024
0.61726
-1.3642
11.266
-1.047
-10.837
-6.9677
1.8057
8.607
6.7649
-1.7052
0.56857
-3.1109
-6.2512
8.0711
-3.5555
1.0943
1.7553
-0.88764
7.2887
-2.2385
-1.815
2.0857
3.6526
-2.4652
-3.474
4.91
1.0928
-5.806
19.93
0.23194
-9.486
14.788
-2.8851
1.9448
-2.3783
4.6003
5.4801
-4.505
13.118
-1.5505
-10.543
-0.076006
-2.5756
1.1878
-9.883
-7.0722
-14.64
-2.4448
2.2613
-20.071
-4.1899
-23.023
-19.064
-16.875
-13.987
0.97807
7.5961
20.36
12.273
14.609
15.069
24.312
21.611
6.8544
7.4291
7.5384
3.8467
-10.435
-8.7236
-0.68362
2.8492
-1.0091
-15.921
-7.1203
-8.19
7.5028
-3.0544
-16.898
3.2429
14.435
-6.3792
-14.736
14.376
-2.3479
1.8332
2.0821
-3.8995
-8.6813
3.4167
13.412
-5.1678
-2.5024
8.0747
-0.23405
-7.4467
3.4382
3.5538
10.086
-20.863
-7.4788
15.604
6.1586
-1.9921
-12.406
6.3085
1.4424
0.16802
-7.9131
3.4664
6.5667
-6.3239
-1.4914
-4.1498
-1.6983
11.291
-4.8053
-13.857
11.031
-2.5568
-8.7552
1.655
-1.2954
-7.3968
-2.8098
-0.10072
-8.3772
-3.0372
4.1734
-14.598
-7.1272
-5.3335
-18.065
-22.93
-48.374
-104.44
-173.6
77.666
621.81
809.62
440.2
-119.76
-502.44
-578.41
-425.22
-209.75
-60.558
32.182
56.994
42.918
26.47
8.4223
-0.28698
10.136
26.006
-2.8029
10.471
25.555
19.754
30.031
11.319
3.097
19.464
19.221
2.5122
14.854
5.9166
13.338
3.5203
0.62159
11.851
0.55611
6.031
-6.4899
10.053
-2.8779
-2.7798
2.4953
-8.0481
8.9228
5.6976
-3.3133
-8.3515
-4.0904
1.1504
-2.7545
0.88744
7.1298
0.98184
3.594
-11.48
-6.999
12.697
-3.9126
7.5193
11.224
6.0933
5.3527
4.5352
23.354
8.3652
-3.6273
-25.03
-32.035
4.1705
-3.3398
9.0158
0.88249
-21.635
-6.208
-4.0016
-5.9362
-7.466
-2.2575
-10.713
-1.0829
-7.92
8.7917
15.709
-5.6376
10.01
0.35697
-0.48508
0.74123
4.9691
0.41869
-4.3248
7.3467
-6.2297
10.117
-0.39733
0.12591
6.708
-7.8763
2.5906
-9.2816
7.0452
2.3584
2.433
4.2088
1.4988
-6.3213
-12.636
10.183
4.475
-6.7783
-5.9377
4.8582
-13.626
-0.99747
0.82315
1.4445
-3.3226
-18.33
6.2297
11.952
-4.0391
-10.275
18.569
-6.6646
0.25137
14.543
14.971
10.734
-12.128
6.3269
-8.6445
-1.2352
21.252
-3.4496
7.8991
1.4944
-21.871
1.5558
-4.9864
1.4498
6.3497
-10.199
-9.7551
1.9415
9.7615
-9.8267
7.1539
3.6532
-14.747
-4.8115
7.3592
8.5453
-8.8272
7.7489
-9.7587
14.112
1.4265
-9.314
2.7539
-12.328
19.337
0.87086
-7.6826
0.050085
13.677
-18.076
8.3054
18.555
-9.9803
9.1956
-8.8263
-0.79059
0.95847
1.9563
-2.0439
11.857
-3.0211
-7.8996
4.8736
-14.137
4.9689
3.2461
-5.2666
-0.72926
-2.5166
-1.7071
1.2832
-12.289
-11.852
5.6345
-0.24116
-2.36
-0.52983
4.2829
2.6194
-16.527
-0.97052
11.283
-5.8609
4.3555
-0.56623
-4.5602
3.7699
-1.7085
15.565
-2.3014
4.8363
9.0557
-18.435
-0.76317
1.3927
5.7219
1.2509
5.5027
-2.3516
-6.2638
11.373
-5.4709
-4.8171
0.65724
4.1644
11.169
-5.0584
4.9764
-4.4051
-12.629
7.8536
6.1731
-0.50574
-3.819
0.7951
3.1655
5.6025
-3.3215
0.77493
-6.1883
4.7321
-1.227
-12.121
4.631
2.553
13.858
-9.1657
-5.2818
3.349
-2.3616
4.2177
-1.078
-2.4123
-6.8633
2.5973
8.8686
-4.514
-6.8363
-4.9084
2.3957
7.7389
-0.63844
2.804
-5.8079
-2.0701
-1.9358
0.52103
3.1642
-4.5252
5.4819
-9.2306
3.7987
11.691
-12.933
9.4383
-2.412
-3.4862
5.3984
-6.5864
8.517
-6.2621
-0.58601
4.515
-6.1365
1.0075
12.061
-4.3578
-6.8012
9.9368
-6.2496
-3.5668
-2.1296
-0.63816
9.5433
4.226
-6.0534
-1.7741
-0.4968
4.5898
3.7288
-5.5244
-3.8203
-0.060145
5.3878
1.447
-3.2627
1.5855
-2.1136
-9.7479
6.3341
0.40016
0.97946
7.5295
-5.4883
-2.7132
-3.3205
2.7615
9.3368
-5.0007
0.27922
-4.5477
-2.6263
8.4741
-1.9835
1.969
-3.7786
1.2919
2.5616
-7.8317
3.062
6.9797
-7.7063
-3.5052
8.9131
2.7657
-6.825
6.1691
-11.113
-1.2224
9.1294
-13.399
7.2593
5.9325
-6.6193
-1.5065
2.7167
7.4141
-7.6214
-10.013
15.463
-7.1424
7.9962
9.1313
-16.989
6.0163
2.0413
-9.4615
-0.39414
8.4278
-1.6591
1.1585
3.3392
-11.909
-0.53251
7.39
3.3768
-5.91
2.9248
3.4513
-7.7378
2.9976
4.9916
5.549
-11.648
3.1683
7.3504
-15.22
-1.0887
2.2732
2.9014
1.8441
2.8335
1.5005
-8.728
7.7125
7.1338
-2.3471
-3.5443
-9.154
3.4104
7.699
2.3811
3.088
4.0679
-10.039
-3.5988
3.6253
2.3955
2.77
-3.8873
6.802
3.2022
-2.8426
-6.2559
1.1844
17.329
-6.9904
-13.465
3.8668
-3.4756
2.2036
-4.024
2.5015
2.4479
-11.267
-1.1608
-1.8446
12.868
5.9256
-21.363
-2.0391
-8.5942
-5.48
16.649
-0.66189
-6.7146
-1.8989
7.1625
-6.8039
4.2494
1.809
0.37017
6.0079
-5.5236
1.1785
-3.6237
2.1742
12.358
8.8891
-20.203
1.3498
8.1106
-0.92857
8.1975
-2.6798
2.2062
-4.1481
-0.94804
4.4801
9.1203
2.2841
-12.416
0.50124
6.9079
-0.91534
3.8142
3.8117
-2.1457
1.4585
-7.6948
-1.4121
12.411
-15.33
-21.846
-36.057
-40.236
-23.605
-18.19
14.566
23.257
43.611
38.82
25.467
24.213
10.498
8.6937
-7.7056
0.80818
-15.911
-1.9075
10.353
-6.0619
16.135
-9.9076
-4.1818
3.884
-12.816
-8.1069
-7.6824
-2.432
-16.213
3.3487
-1.5774
-5.9853
16.117
-10.138
-3.589
-4.4343
-3.6784
8.0232
-13.845
6.4433
8.5342
-5.3617
4.3886
-5.1654
3.4269
6.6796
-1.1565
1.0909
9.6306
-2.6022
-1.7102
4.1344
-5.564
0.94831
-0.054739
3.6417
-2.4495
6.6975
-3.0006
-2.4474
-9.2086
7.4167
17.415
-18.328
15.279
-1.4966
-10.687
3.1512
-4.7777
1.6719
2.5799
15.048
1.8261
-0.925
2.5725
-5.711
6.0225
2.4316
-5.7016
-3.44
-0.73708
-15.048
-29.748
-1.241
-21.816
-20.046
-22.671
-43.351
-15.391
-12.066
2.8337
-8.3614
12.547
26.998
41.454
58.126
49.118
58.289
25.392
-5.3108
0.98385
-5.019
-2.5429
-6.0143
-8.7396
-5.1427
-14.855
2.6654
-21.342
-36.595
-6.982
1.8202
3.0109
5.2168
3.6887
11.466
9.5271
-5.4605
5.9414
-4.6778
-3.4746
7.5406
-9.0329
-8.5638
-2.049
4.3451
-1.073
2.8693
-0.81305
-7.1877
1.2452
11.861
-3.4372
-8.1099
3.2599
-12.744
2.6551
12.237
-15.972
-2.8511
-1.3599
-1.7157
-1.6434
-15.959
5.2569
-5.3145
3.5445
2.3831
-3.7165
3.3296
-6.467
7.8897
-3.6552
-2.0713
1.2185
1.7654
7.4331
5.8804
-4.6804
-6.1183
6.8679
8.2323
2.4088
-15.53
8.9842
7.3269
-18.946
-5.8645
20.948
7.0007
12.617
-7.0153
-21.023
12.57
-15.37
-1.2985
10.459
7.6227
4.9615
-0.10428
-5.2774
1.0404
-3.794
-16.849
4.2336
9.1136
3.7286
0.55551
3.9343
-13.793
2.3306
9.733
-7.2545
5.0584
9.399
-6.1652
-10.163
0.45934
10.481
1.7119
-1.8131
1.2401
-22.44
14.265
12.09
-11.329
5.7276
-11.657
4.1472
14.211
-3.7177
-2.8993
9.1918
-12.978
-2.5005
8.9297
0.29375
5.1199
-5.4123
4.8505
8.351
-0.13415
-9.2666
-0.85224
-3.9605
11.963
3.1043
7.8159
0.8508
-24.862
12.255
4.6957
-2.0497
1.2058
-1.9253
-2.427
4.8197
9.4997
-5.3301
1.3027
-24.483
-39.249
-17.286
-22.27
-15.026
2.7828
9.3507
5.8367
22.293
16.077
10.527
25.735
34.182
6.5258
7.4187
20.158
-3.6998
7.6602
-17.34
-15.074
-4.3992
-16.494
-6.322
-10.331
-8.7618
-3.5242
-4.8096
-3.202
-3.1656
5.3598
-2.902
-9.3714
1.9854
-0.94848
16.902
3.7612
-11.672
7.6997
-3.9513
9.5089
-7.5
-3.7223
20.328
-6.1954
-12.302
1.9862
18.001
-7.4689
-5.0178
1.4885
8.539
3.4086
-10.846
2.2814
4.3392
-1.3551
-3.2502
2.9964
-3.3342
13.508
-4.5028
-10.051
1.7066
-4.1769
17.494
1.843
-11.984
2.2473
2.3383
-10.625
4.0297
8.1032
-3.3374
1.2386
-0.94738
-6.0212
-9.5625
17.985
-1.5079
-5.0554
-1.0591
-7.8555
10.967
-5.6243
7.3954
-4.0043
-6.7235
1.749
3.2117
3.5602
-1.7322
3.5286
-4.4185
-7.473
9.3489
4.879
-9.3363
0.8117
-15.116
12.266
20.446
-7.6392
-0.81544
-3.4948
-0.61537
1.5828
-2.0838
6.6264
-0.15524
3.9562
-1.0838
-2.7159
5.4464
-18.549
-3.9093
-1.5843
-14.92
-8.2217
-13.448
5.0275
4.1167
-10.303
14.049
14.607
-2.827
7.5909
2.2549
7.6886
14.117
-0.044827
13.471
3.4659
2.8331
6.482
1.4025
5.686
-2.2683
-1.1928
-13.673
-8.9352
3.669
-11.256
4.9281
-8.4814
-7.6853
0.50923
-1.614
8.0583
-13.743
4.9419
-4.3743
-9.2423
15.384
-1.3556
-9.5444
-6.0545
10.352
6.9623
-5.2249
7.341
-6.2178
8.2036
7.5766
-5.3817
3.2912
-5.7459
4.9
0.24349
-4.4258
6.5944
2.0576
2.7093
2.8306
14.332
3.0991
-14.423
-12.979
-15.729
-22.399
-27.366
-11.437
2.2696
22.002
20.355
-8.8074
-16.169
-3.44
-3.073
2.0549
21.343
8.7873
10.132
16.608
11.689
1.4947
-8.1399
9.6125
5.0415
-8.4903
6.1284
17.765
-5.019
0.85973
7.2314
1.0882
2.7556
-12.621
-8.332
-6.4844
3.9095
7.0046
-16.696
4.287
-1.98
-14.843
2.7622
-7.1956
0.45412
-12.301
6.4829
12.648
-17.186
0.74633
-1.0895
4.1339
3.7258
-2.7936
-4.1878
-3.0218
11.192
1.1237
-10.852
6.4075
10.541
-12.022
1.0253
6.7342
-4.5746
5.2016
11.816
-8.2412
-9.7689
7.2859
-0.085095
-0.90644
0.78914
6.6634
-4.9354
-7.908
3.7752
7.6482
-5.3566
3.5172
2.0471
-4.4688
5.4398
-5.9664
15.808
-7.9641
-21.884
12.687
3.0522
-3.5512
8.7444
-3.6671
-3.3114
3.5879
-7.8365
6.749
10.833
-9.0382
-1.8978
0.59253
-0.7692
9.1689
-7.5879
-7.3384
-0.65971
8.3818
4.8068
-6.6037
10.51
-3.6776
-7.4692
1.817
3.9482
6.9195
-5.6531
-3.4802
8.1819
-11.442
7.8168
1.1281
-9.0752
5.6743
8.9642
-10.34
-12.396
11.907
-18.34
5.3364
-14.322
-19.683
-4.4881
-15.845
-1.9542
-13.232
-8.6292
-15.144
13.946
34.207
8.6901
19.931
21.486
13.336
15.695
13.401
7.7838
1.1465
9.2555
9.9805
1.4381
8.1732
10.483
20.221
9.0304
-1.3238
9.6897
-14.44
-8.0118
-21.831
-38.39
-9.5079
-14.017
-11.038
-7.8803
-9.6552
-3.5823
-17.034
-6.239
-19.144
-9.6902
21.653
-0.64663
0.40304
3.2515
12.379
9.8312
-7.7457
-12.318
12.712
4.9756
-9.291
-2.78
-0.44431
19.542
-1.8694
-5.9172
1.3305
1.2012
12.533
-1.6023
-7.4461
0.084129
-2.2376
-1.8943
10.715
7.3907
-0.30319
1.6485
-1.5471
3.9208
-10.42
1.8082
10.523
-6.9791
-3.8385
11.114
1.7513
-15.49
9.8556
16.55
-14.496
-9.1325
15.358
-8.1166
-6.3866
11.44
-5.7563
-0.29973
7.624
-9.1176
4.4799
1.7417
0.75408
5.8128
-11.389
-2.8602
4.9391
14.866
-3.2499
-10.51
8.1078
-2.2691
-3.7649
-0.16078
10.714
-6.2635
-6.6337
10.176
-5.6786
18.313
-4.9355
-0.89342
-6.3677
-10.376
13.656
-0.31864
9.5122
-10.968
8.2337
-3.9575
-9.78
12.793
-8.4019
0.044543
-10.21
-6.4158
-4.3902
-16.478
-1.9381
-0.30999
-4.5043
-20.578
-4.8162
-2.2135
1.1697
13.172
-6.7459
16.935
4.8166
14.986
15.867
0.078121
32.014
-2.7565
-5.0744
0.76568
8.6865
1.9984
-9.8808
-3.5074
-10.284
5.4598
2.3661
-10.352
-2.4845
13.065
-10.375
-3.4212
-8.5546
-0.25933
5.1386
-6.486
-2.7923
-3.0285
9.9862
-1.5776
-1.1603
4.2152
-1.1009
-4.3169
2.8035
7.7229
-1.7108
-3.5726
-0.83696
-2.1429
6.5465
-6.5174
13.395
4.6682
-3.9378
11.482
-13.528
5.5518
8.9826
-6.3099
-0.13801
-17.574
-29.455
-6.9651
-16.445
3.5105
6.7629
-17.777
5.7708
-20.24
-30.585
-16.257
-2.6326
31.467
49.347
42.835
32.585
27.758
14.57
1.9764
-0.5862
-7.9207
-10.786
0.083744
-8.2479
-9.304
-9.0516
-6.2163
-7.4841
-1.8512
-9.8859
-4.45
10.266
-11.833
-11.102
-0.28272
9.3469
-0.096843
-9.1454
1.9845
11.404
-4.8211
-0.83778
-0.027378
-7.3254
5.8064
1.8437
9.0255
-8.5954
-3.8752
3.9375
-7.6472
-1.7425
2.2443
6.7302
-8.0073
2.6202
4.096
-3
7.5539
-6.0815
-4.138
5.2142
-3.8228
-9.5315
8.0323
7.2106
4.9524
-5.0545
-16.743
17.597
-3.0917
-4.2
7.1644
-7.2215
8.428
-3.1848
2.6101
2.8713
-6.7536
1.0879
-1.1602
5.5225
2.6854
0.5142
1.1419
-2.5371
-2.389
-1.6564
-7.5632
-0.4353
11.767
0.50017
-5.0443
0.086593
5.8789
1.12
0.891
-15.181
-2.7274
20.971
-7.6556
-3.7276
-1.3292
1.5208
2.6556
1.3575
-2.1332
-3.978
9.9424
-1.4385
2.9012
1.3865
-6.3774
12.942
3.2927
-9.0296
1.1944
0.86099
3.1999
-5.8224
7.4068
9.3741
-20.284
-2.0467
4.4481
-7.7701
7.2517
-3.1949
-2.4733
-1.9915
-20.045
10.778
7.926
-12.192
3.6134
6.0988
-7.3822
1.7052
-0.17178
-13.008
10.552
13.393
-9.9163
-13.855
-1.3691
3.1669
5.6162
-18.592
19.93
3.2702
-8.5694
10.336
-5.6032
5.294
-17.27
6.9324
2.4478
1.0208
-7.8646
-2.4268
-5.8394
-5.4401
18.612
-9.1375
4.1892
-13.079
2.6975
14.948
-10.118
11.391
7.7454
-1.7328
-4.1459
-13.659
-1.3787
18.947
29.688
46.45
91.536
118.31
108.05
91.615
42.949
-7.7742
-60.707
-92.333
-120.85
-156.78
-149.36
-126.38
-100.09
-71.626
-26.636
6.8203
35.232
37.852
45.707
52.621
44.962
46.664
37.66
28.496
27.998
30.644
0.3813
21.863
7.3087
0.3546
6.7326
-1.8527
19.585
-16.392
-3.3306
0.042187
-16.617
4.795
4.2793
-1.9916
-5.8481
3.0268
-5.2275
-6.0623
9.4383
-3.6872
-10.867
1.2687
4.9797
-1.473
-6.8718
-5.7401
1.7135
2.8497
6.6215
-0.17605
-8.9288
5.3757
-3.1756
-0.92516
4.1483
-11.314
12.69
-8.3631
-4.4632
11.778
-18.575
9.1987
12.183
-12.465
-1.9124
0.5385
6.2334
8.802
-5.5352
1.0029
0.94901
-4.104
-6.137
4.4264
0.4905
2.0589
-4.4356
6.6449
6.0967
-11.179
5.632
-9.205
10.351
1.06
-6.1171
6.791
-0.7564
7.4277
-3.9952
-10.41
-0.38431
4.9267
0.18627
3.1681
1.7371
-6.2148
5.6671
-8.0219
14.202
2.6893
-16.542
-0.24252
-4.4173
7.7056
-7.4496
13.803
-6.7177
-10.54
6.0051
5.7259
7.0511
-15.105
6.2373
-3.4776
4.7524
4.7523
-21.908
3.157
6.0625
7.1672
-3.5257
-1.9522
5.8032
-6.2388
2.6573
-3.0569
8.0413
-5.8309
-9.4527
12.291
-1.0167
-7.5943
1.8673
12.7
-1.5432
-7.611
-6.0122
1.6491
10.167
1.0977
-8.9226
-2.4465
-4.0119
5.9112
14.733
-5.6656
-6.0865
-10.708
-0.50775
2.4787
8.7088
-4.5822
0.006932
4.5252
-4.16
8.9359
-12.057
7.1167
-7.1684
-11.499
20.712
-4.1046
3.0863
-11.635
-7.2123
11.703
-3.2386
7.5941
2.3155
-0.85604
-11.051
7.4822
-3.1389
-3.1114
8.3055
-4.4609
5.8054
2.8653
4.0199
-17.3
5.585
15.323
-5.4571
-7.437
1.2158
6.7112
-4.7234
-5.7093
-6.3674
0.33451
2.9616
20.959
-2.0235
-5.4032
-3.6752
-3.4725
3.2897
-22.42
16.162
8.6862
-8.3936
9.0897
-4.1374
-5.1497
5.685
4.343
-2.9779
1.8977
-16.953
-4.4692
15.845
-4.8218
14.523
-2.4056
-17.386
3.7531
7.6139
-0.58129
-0.57894
-1.2692
-14.562
6.095
11.826
-2.1526
-1.9548
4.3143
12.452
21.741
19.399
45.568
59.149
49.04
54.46
36.997
11.061
5.0429
-31.019
-53.352
-80.989
-90.123
-76.299
-79.684
-46.868
-57.987
-23.053
-16.937
-7.3342
23.709
2.2485
31.067
21.697
15.193
30.282
19.095
12.71
14.561
15.457
10.856
10.457
15.972
17.942
1.0687
-2.9526
5.1156
0.75251
14.605
3.7452
-5.7784
13.386
-11.863
-0.3216
2.1923
-10.132
20.489
7.2239
-5.1063
-9.6419
8.7956
9.6606
11.312
12.211
3.4545
2.8688
-3.0406
-15.56
-15.563
7.3888
-19.364
6.1796
-6.4688
-10.929
4.79
-16.726
-16.632
-9.0499
6.5988
-12.516
-1.6107
8.9152
4.7077
-4.7963
7.7793
14.329
-4.5462
-9.3432
4.0322
-0.82551
1.4478
20.93
1.6113
-8.8923
5.1104
1.7572
0.14036
17.061
-3.0273
-5.3473
3.7766
-4.892
0.77184
19.363
2.724
-0.65542
9.8107
-8.646
-1.6485
-6.9594
12.325
1.9898
-20.81
8.5008
-12.248
-2.0855
-0.62871
-21.381
12.002
-7.7686
-3.5521
4.0325
-26.904
4.6223
-4.1389
-7.7948
16.973
4.7598
-12.499
-1.6096
16.182
-5.7231
5.234
3.1384
-3.369
-4.719
2.0595
8.2117
9.0375
8.3459
-8.6778
1.7304
-1.7964
11.435
0.76214
2.1322
-0.73811
0.5529
17.958
-5.063
12.105
3.2706
5.7645
4.2413
-10.499
4.9272
-4.0088
-8.9686
-4.0619
-17.219
-24.952
-11.065
-7.689
-7.6135
-6.355
-6.6017
-3.2196
16.24
6.2712
-4.8042
16.386
-1.1127
3.2799
8.6285
-3.6743
-3.0644
3.6581
15.713
0.95974
-0.76467
-15.467
0.74621
19.872
-9.1668
-8.192
5.425
3.4106
7.224
-7.9455
1.2357
3.9163
-13.518
13.427
-3.2153
-7.1376
8.1812
5.3778
-5.1449
-4.8947
10.925
-8.2032
-13.844
15.193
15.121
-11.012
5.2604
-11.762
-5.3127
15.485
-11.551
2.397
-2.1017
9.3505
7.4443
-10.146
2.8821
0.26618
-10.193
12.137
-4.6332
-4.0467
8.7552
-14.448
17.147
-1.1937
-4.6522
2.8845
-2.6928
7.7443
-11.49
3.2241
4.7926
5.9946
-0.74941
-13.405
6.763
-1.3311
-2.501
1.2649
-1.5778
-4.8016
5.7364
2.3392
-1.3291
-3.4996
0.1661
1.4687
-10.727
7.4779
-6.3702
-6.2826
6.4609
-7.191
3.5686
10.869
-12.627
5.8591
0.50053
0.38712
23.352
-9.4266
-10.21
5.1071
11.637
-6.9827
1.4427
2.1939
-11.944
-0.20318
7.0583
-0.81216
0.6327
5.221
-13.878
-10.902
-2.0561
10.749
3.5464
-5.4445
-2.5129
-3.9823
-0.63497
3.9101
-1.9524
0.14744
-0.56634
-4.4139
6.145
0.76275
-0.78562
1.1225
-8.0088
10.685
9.7258
-12.359
-4.7568
7.2418
7.3934
-0.38204
5.6851
-5.6261
-15.347
2.0742
12.623
4.5415
-10.341
1.9662
0.83802
-3.3313
5.7084
0.24325
13.898
-13.273
-9.8563
11.796
-3.7008
2.1118
-1.9546
0.23373
-3.4916
-8.5953
5.5876
6.7945
-2.2724
6.1718
-12.412
10.206
13.205
-22.167
16.109
3.9899
-11.861
-10.932
-10.358
25.634
-4.153
-2.8253
0.39359
-0.59514
10.482
-15.138
0.75689
-3.1814
8.6616
19.08
-8.9968
-9.2866
-12.081
-3.2117
14.772
-7.5317
3.9889
7.4745
0.95697
-4.2285
-10.525
5.3902
-0.95589
5.8541
1.3534
-0.73036
4.8901
-6.0178
-3.6475
9.9771
-7.0298
7.4335
4.4723
-16.863
5.4099
0.70593
6.988
6.1195
-7.7041
-2.5295
0.8625
-2.2788
9.9435
-0.69856
-2.0927
2.8213
-1.8107
4.9515
-5.9784
6.4235
4.5194
-11.792
1.8473
5.6341
-14.383
8.5606
11.733
-17.874
-3.4064
-8.2569
0.88371
16.152
9.8022
-12.289
-10.881
0.50853
-3.1726
10.67
-6.6492
-8.3133
3.0914
-16.476
12.249
15.88
-13.905
4.4376
-9.0495
-0.27839
2.1018
-2.7744
2.8569
-0.18554
0.65545
1.5151
1.6699
0.85688
-3.4891
-6.7951
-2.8832
5.4923
6.2669
-9.7316
16.542
-5.5231
-16.122
14.187
-1.0139
-6.7387
5.4496
-1.4682
3.0308
5.6508
1.8701
-2.5418
-5.0448
5.0613
-2.6966
2.7761
-1.5599
-5.2109
8.2808
-9.8107
-6.3446
13.13
-3.1766
4.2521
-13.006
1.0455
-3.0762
-4.1994
6.6342
-11.499
7.1044
-12.671
-1.296
-1.2277
-10.396
-0.50237
-3.4108
-18.493
-35.21
-66.68
-145.44
-120.25
348.25
813.6
670.52
145.45
-352.15
-579.57
-527.27
-326.87
-151.35
0.2858
55.273
55.655
42.824
19.99
-0.32342
3.2386
10.361
13.977
24.146
14.441
18.892
16.179
24.471
21.607
14.276
2.3388
6.281
19.937
15.884
-8.2563
8.6279
19.118
4.4182
6.1155
6.039
-3.4749
-0.95359
9.9007
-8.2848
6.022
-11.331
-0.14714
1.7031
-9.4133
23.634
-10.263
1.5723
4.0317
-23.672
10.194
8.8515
-2.7336
-6.2197
-0.21269
-4.2831
-5.1614
16.569
-3.7796
-9.1214
-1.1577
7.4031
-5.6428
-2.3836
2.5215
-3.5164
9.2009
-10.659
-3.6658
17.671
-3.1768
-5.4664
-1.8663
-12.692
18.519
-2.3504
-6.193
13.545
-8.4182
8.3767
-10.337
-6.7866
13.056
0.5756
-7.2581
-0.9098
11.054
-10.129
4.5883
1.1041
-3.0546
-1.7152
-14.929
7.8801
6.2646
4.8589
-0.69738
-1.8021
-5.5106
-5.1363
3.0754
8.3976
-5.4553
2.3656
8.159
-13.42
6.22
4.4772
3.2758
3.1753
-0.72496
5.1691
-6.4369
-0.18881
11.912
0.34413
-3.3864
4.1112
7.3239
-13.407
2.8905
11.897
-7.4462
5.0776
-10.297
8.4058
-0.23038
-9.848
4.5589
-17.734
0.43074
-6.4861
3.211
-0.23659
-5.0259
-10.049
0.45154
7.4699
-17.437
19.087
-5.9435
-8.8885
4.1247
6.0188
5.5932
-8.3824
6.4915
3.5963
-3.1285
-4.9418
-4.4839
-0.29682
3.3373
2.9799
-2.7384
-9.0591
-1.8422
0.89692
4.6418
-4.678
7.4445
6.3528
-17.702
-19.922
-16.471
-21.925
-16.181
5.975
11.003
12.818
19.598
28.128
26.283
9.2932
29.371
41.28
4.0365
6.9458
12.01
5.4485
-9.1681
-15.63
-20.086
-11.767
-12.885
-35.096
-23.648
-16.72
-27.837
-11.332
-9.0818
-17.016
4.2283
7.2367
28.715
17.019
13.11
5.6322
3.8922
12.423
1.9938
23.656
4.0156
8.1218
14.886
-2.109
9.9603
-3.7931
-8.355
-3.4371
-13.708
-0.079063
-4.3523
-11.696
8.9857
-1.3573
-16.867
-3.1305
5.3045
-0.18052
-8.1685
-6.0285
10.944
-2.3187
-5.7553
8.0621
-10.828
0.47009
7.095
-13.131
2.8246
20.662
-7.4884
-4.6438
-0.59256
-0.10731
5.6715
-7.0959
14.761
-7.3575
-7.9914
15.354
-3.1192
-10.747
-1.4375
8.5579
0.68348
2.5313
-1.6442
-10.246
-1.3849
8.9757
8.3844
-3.3193
-4.4333
1.6899
-2.5869
2.9102
0.74949
-2.0118
-4.6831
-3.1046
3.4782
12.465
0.62524
-12.656
1.6653
0.9145
2.9337
-3.0759
-0.678
9.6019
-1.6362
0.18038
1.9173
-9.0025
-2.581
-1.7319
2.0131
2.9507
9.3471
1.1241
-4.015
3.6058
-7.2114
-3.4248
7.877
7.7101
-6.2115
-7.1741
9.5472
-1.3348
-6.9687
10.738
-7.0481
0.93939
-2.272
2.7149
1.1108
-3.8858
7.9071
-16.777
-35.515
-40.335
-20.433
-24.439
-7.2116
20.45
19.236
38.629
44.419
26.725
28.415
10.395
-6.0315
0.44616
-9.3449
-1.435
-3.9079
-1.9014
9.139
10.431
2.6898
-2.6753
-0.59981
-15.871
6.4141
-5.7892
-19.404
-9.7331
3.8395
-6.9535
-16.151
-1.5712
-14.506
-0.16329
-5.4328
-10.156
-17.477
-24.793
-9.2167
2.4921
9.1093
26.206
24.122
17.519
28.012
13.058
9.6837
19.723
7.7327
2.1449
-5.9582
-4.1261
-9.0327
-10.704
-13.124
-11.889
0.0038665
-25.273
-7.5378
-12.137
-15.41
-5.3761
6.2311
1.2082
1.3133
21.873
-2.5104
11.535
0.67891
-3.5288
17.002
20.242
9.527
-1.0136
16.506
6.017
-4.958
3.3062
-1.3858
8.0654
-10.682
-11.573
4.063
-5.3225
-9.983
-0.65324
-0.99773
-8.7804
4.4829
-17.921
11.599
6.7738
-18.558
0.3743
-11.832
-3.8312
4.237
1.7852
2.4845
-5.166
-14.365
-4.6325
5.4944
9.1748
6.0551
-1.4066
9.3105
-7.1206
-8.812
10.626
-2.1813
4.5733
-5.4258
-6.6785
6.4058
5.9722
-2.6682
3.9845
0.39512
-5.3556
6.9866
-4.4345
3.993
3.202
-2.6898
4.0989
5.9611
3.831
-9.9196
-0.56555
9.744
0.48371
2.5303
-2.7391
4.9831
1.3294
-16.568
6.463
7.5137
-9.8341
0.56373
-18.765
-30.818
-17.469
-14.211
-18.278
-32.991
8.334
45.262
46.453
53.201
36.692
12.868
2.9649
-10.444
-6.6
-6.32
-16.371
2.0807
-16.4
-15.933
-5.6738
-28.208
-28.953
-25.966
-2.5598
6.4694
11.973
15.916
14.536
8.6377
16.546
26.898
3.6924
12.659
1.7593
9.2221
5.1509
-2.9886
8.2119
-13.137
-1.6801
3.101
9.4089
-5.1787
-26.444
-1.1347
14.452
-4.4585
-10.13
7.4118
-2.4899
2.4782
-10.955
-7.9543
10.333
-12.034
4.3822
2.0312
-12.778
-0.24599
-7.7961
-5.026
10.054
-8.716
-1.527
3.0325
-8.1257
0.07204
-6.6283
4.7107
-1.2206
-2.4307
-0.29965
0.36106
4.179
0.10416
3.3495
3.136
-2.5508
-2.6885
3.1986
3.0572
5.7784
-2.3371
0.10196
9.0048
-2.8503
3.6537
-10.139
-7.0954
19.334
-8.2529
16.946
2.7874
2.302
-5.4167
-23.548
13.654
3.9703
9.5124
2.2621
-8.9554
4.4436
6.8735
-7.9513
9.5174
-7.8239
-8.2493
10.565
-18.081
-4.4481
-6.1781
-17.579
-4.4517
2.1546
-0.20251
-2.7291
-3.7611
3.5412
18.8
9.9685
19.893
13.308
-1.3803
-4.6195
-21.407
-13.356
3.2813
-3.5215
1.702
-3.7583
-28.604
-24.951
-19.062
-13.799
7.9916
26.907
29.171
39.329
32.047
25.752
18.679
10.143
-3.4333
-8.8688
-12.74
-20.025
9.9545
-17.456
-15.294
7.6272
-12.774
-4.5658
-14.363
4.2083
-0.82285
2.21
2.8484
-9.3594
9.6398
-2.4429
3.8964
4.566
8.0421
-8.4851
0.97388
16.263
-6.6703
9.0063
-1.1237
-2.2337
18.898
4.3395
-6.7358
-15.82
-37.973
-32.861
-13.009
-11.944
0.44154
4.5055
15.311
13.921
-1.0001
3.7956
3.8292
6.2913
-1.8571
7.706
-4.1925
0.76494
30.746
9.2252
-4.6128
-11.23
3.0578
8.033
-3.8972
6.8929
-8.9933
-5.1235
5.3519
-9.8993
-6.2069
2.4501
-3.7638
4.4837
2.7302
-3.7819
2.763
1.0747
-8.2031
7.1355
6.8429
-8.7869
0.41731
-8.8754
0.66892
-0.15148
12.558
12.402
-11.71
-7.555
-2.7357
13.147
8.751
-9.5563
-2.8159
-1.7889
2.6135
3.5193
-9.0041
9.0214
4.5534
-13.22
-3.8405
16.495
8.889
-4.5509
-0.45657
-8.666
7.723
0.0088699
6.6581
-3.0412
-5.8542
10.72
-9.5129
3.3922
2.7611
9.4111
0.15911
-11.06
1.3633
5.8551
6.7037
-7.4872
-5.2404
6.0299
-5.0755
-14.652
-30.13
-46.981
-18.491
2.338
-1.4746
14.134
13.471
-13.088
-4.16
2.9043
-7.3466
0.81576
32.015
44.572
11.289
21.507
21.326
7.5114
14.578
-8.4488
5.3797
2.9827
-16.867
5.5161
-10.27
-16.338
-1.0929
-10.593
1.6624
-8.9827
-15.364
11.596
4.1162
-18.557
0.96761
9.8591
-11.545
-5.0028
-5.7972
10.603
-2.8774
-0.55624
12.213
-11.929
5.2593
6.8952
-12.118
1.6273
-0.093639
-0.82342
4.5256
-7.9811
13.027
-3.4031
-7.5413
5.4039
6.2502
-0.23029
-6.4777
-4.2116
1.065
4.9039
6.7371
8.4363
-18.645
-0.20491
6.1596
6.4268
5.2897
-10.733
0.9577
7.5168
13.042
-7.6014
1.7561
5.6198
-0.48187
8.5457
-8.5652
7.1834
0.25896
-3.9459
5.2477
-4.77
-1.156
3.8938
-0.3958
-8.112
-7.5008
3.1006
7.075
-3.2239
7.0075
-7.1147
-20.42
7.6638
-6.357
-9.459
1.9826
-3.3472
2.7048
-1.3362
-2.9922
-6.8549
0.95405
-1.7559
-12.853
-5.0793
15.082
3.7813
-7.9646
4.8232
-3.2945
2.0185
10.642
-1.2719
-1.6898
13.592
-6.2608
-12.656
-1.0998
7.0129
13.314
-2.4053
1.5069
-3.4108
7.622
0.81546
-1.544
14.078
-6.2199
2.7001
-8.9615
-2.9425
11.691
-0.54738
8.4375
-6.8384
0.33007
-4.1547
-3.1658
-4.0944
-6.5808
18.75
-0.74559
11.811
-13.287
-15.284
10.264
2.6354
1.9781
-6.1283
4.7746
-6.4105
1.454
-10.15
1.1329
2.9193
-5.6298
14.892
0.57385
-3.7735
-9.0287
3.8135
2.9212
-0.3737
-2.1711
7.4972
2.7437
-13.698
-1.8629
3.5524
5.4431
0.31125
-4.9754
0.60896
11.294
-5.218
-7.2368
-7.0023
4.3574
4.0567
-5.2921
8.008
-9.8126
11.444
4.5555
-10.7
1.2975
0.093013
11.23
-14.907
-2.76
12.558
-8.3442
0.39599
5.4214
4.424
-5.4898
-10.265
6.6149
-0.72389
3.4145
11.283
3.3235
5.9053
-7.2859
-4.9027
-1.8459
6.035
8.9491
3.5601
7.3699
-5.3326
-0.75017
10.534
17.106
0.52006
2.8333
0.1154
-8.8159
-10.294
-21.612
-2.3265
-13.441
-13.215
-5.7564
-6.9127
3.0606
-8.0338
0.051965
1.5598
-2.8249
-0.57226
9.3351
8.0188
-11.935
4.3694
1.6761
-3.3442
2.5599
0.49342
4.0841
-4.2636
6.8484
4.7962
3.2221
-6.0469
3.8506
7.7055
-9.6997
12.058
-6.0813
-1.2695
-0.24659
-2.3186
3.1466
2.1081
4.1467
6.1081
0.8917
-8.5598
-6.9323
-3.1001
13.655
-5.8671
4.824
1.8504
-2.5689
1.2379
1.1258
4.4579
-2.7439
-4.1227
-8.8799
4.8877
7.7747
5.6424
-5.1089
-4.8642
0.14915
0.09832
2.2475
6.5984
-0.43789
-12.78
-1.2054
11.385
-6.0832
-4.1168
-6.3624
9.8654
14.479
-14.57
8.9863
-8.7597
-1.0506
9.98
-0.078151
-10.326
-3.1319
13.723
-7.4717
-2.0518
7.0433
-1.7108
-3.746
6.4052
-13.749
3.4212
7.026
-9.5216
3.3588
-0.69244
5.9454
8.9279
5.6784
-0.80028
-4.8147
-3.2678
9.4504
7.7943
10.335
15.54
9.3897
3.6831
-13.141
-15.255
-18.731
-4.4369
-2.7934
-1.531
3.0192
-12.117
-3.4077
-15.011
-5.6273
-2.1369
-10.538
-1.266
-6.829
12.336
3.3317
-1.3301
3.6457
7.5584
9.589
-7.7342
13.844
-0.72271
-13.562
6.8613
3.7774
-4.5092
1.5279
8.9435
-1.4667
-1.9634
1.1365
-3.5108
6.4603
-2.0516
-2.2109
7.745
-1.3133
8.1089
-15.477
-7.222
15.889
5.8254
2.8124
-12.676
3.4683
10.828
-5.9446
-12.538
-2.7213
7.4318
-0.2537
9.5819
0.58726
-9.6598
-2.1976
7.3918
4.7262
-14.735
4.7923
5.8553
-6.5934
-6.5635
-8.2103
19.593
1.3537
-4.4041
4.1528
-6.0476
3.7852
3.2806
-7.0373
-4.4207
6.0002
-7.0178
8.7081
-4.5866
-0.016296
7.9288
-11.175
-1.696
8.8512
1.8636
-1.9553
7.4586
-15.327
-0.64824
0.030465
7.5514
3.6371
-14.993
4.0603
0.074812
2.7859
-3.5723
-1.4007
4.8465
-3.1375
-7.5315
6.8081
1.056
-10.702
-9.835
10.436
6.6286
-20.939
5.2743
-0.045329
-6.2327
-5.9396
10.769
-6.0443
-0.33165
16.108
-14.102
16.265
2.0023
-9.1164
-12.21
6.2044
1.8119
15.805
65.432
66.762
110.7
114.21
111.36
77.138
2.8086
-53.016
-89.047
-128.5
-154.32
-145.04
-135.78
-108.35
-80.212
-32.426
1.6985
19.18
42.412
43.325
37.354
61.627
40.58
31.481
51.971
21.196
17.372
15.158
11.292
8.7274
11.425
5.5517
7.7031
7.7504
-18.776
-6.1422
0.62403
8.7868
9.7069
-8.999
-11.966
5.8307
-7.364
-2.704
4.8251
-7.9031
2.8828
-7.1888
5.3325
6.9036
-15.965
-4.2845
9.6719
6.9134
-5.285
-5.2239
-2.6635
-1.5298
4.4344
-3.7346
4.2347
2.3815
-7.5621
2.4763
2.0308
-4.2124
7.4527
-13.042
1.2177
13.658
-18.817
8.697
6.4548
-4.5532
5.9748
-6.0262
-4.0475
8.5048
-6.8941
-4.5344
8.0343
-4.7509
-0.29012
1.3892
0.96114
-3.4103
2.7095
8.3902
-5.2122
-9.9261
16.365
-5.2195
-15.178
12.853
-1.0354
-6.3991
-5.4687
12.611
9.2294
-7.3817
-10.863
6.1766
5.1669
-15.859
6.6872
6.6424
3.4802
-9.0538
-0.071238
7.4167
-11.175
12.999
-0.3237
-3.7911
4.3979
-3.7145
2.3097
-4.9868
-3.9097
4.5865
-1.6998
-4.8706
13.987
-2.9436
-8.6051
13.451
-10.045
-6.2018
15.18
-5.1705
-2.2985
-2.4919
2.0138
15.739
-6.9246
-17.958
3.5465
12.32
-1.4594
-0.69333
-7.4055
2.2514
5.1189
4.798
-4.2518
-1.7845
0.75705
-1.9472
11.128
-12.816
-1.9448
5.4447
-5.4608
12.313
-10.822
4.7466
7.8656
-11.192
0.69786
-7.2449
-2.3377
7.758
8.8416
-13.472
4.2822
-6.74
-7.2419
14.827
-3.2075
2.0419
0.85592
-2.7129
0.70362
-1.0473
2.8438
4.0128
3.0568
-9.6952
-14.279
0.49876
10.148
5.1831
-0.2606
0.22983
-6.6435
-2.8043
-2.8192
6.5701
3.8124
-2.5028
0.90336
0.62076
5.1008
-11.644
0.25652
5.4171
-8.0167
4.2283
10.388
-5.7732
-17.728
9.6832
7.005
-11.966
-1.7816
4.2674
5.4363
9.3414
-20.002
-6.2687
4.2693
-3.601
0.33478
-8.3299
3.6377
-14.763
5.4563
1.8696
-1.7573
-0.78676
-1.7258
7.7446
2.4614
25.379
21.092
45.617
62.958
52.787
65.272
53.225
29.105
16.412
-19.431
-41.676
-59.922
-80.207
-82.499
-76.7
-72.424
-62.537
-33.613
-16.379
2.4053
-4.4226
9.312
16.771
14.961
25.332
15.543
22.035
23.068
10.952
8.1681
11.349
11.463
18.213
13.264
0.99845
13.854
2.5768
-8.3874
13.694
-2.9402
3.6939
7.9156
-6.0011
-0.53123
-3.3518
-2.5719
-3.52
1.7488
8.1538
-2.9144
-4.1376
-3.7249
0.26052
4.1145
-15.289
-1.5171
10.877
-6.0895
-4.2019
1.5667
-7.8452
3.4382
16.595
-1.0207
-1.1336
-0.68873
-7.143
-3.2366
4.3872
-1.1641
-7.8427
1.633
1.8811
6.3305
-5.984
-2.2178
16.793
-2.1225
-14.858
-6.5425
10.039
3.9178
-10.9
7.3719
-1.9284
-6.727
8.4862
-8.07
-0.85507
-0.75369
4.1026
-6.879
-1.5977
15.676
-8.5225
0.41861
-5.6753
-2.918
2.0556
3.3334
-1.9868
-7.1455
5.3143
-4.4028
-8.8155
5.8327
15.401
-15.871
-3.326
-0.29278
4.539
4.2028
-29.851
-5.1767
-27.153
-28.818
-62.572
-155.16
-113.67
323.76
818.27
684.8
147.77
-353.52
-586.57
-520.19
-335.6
-121.14
17.243
64.327
71.388
33.884
6.7145
-10.415
-3.8028
-6.5342
-8.5925
24.396
24.411
9.3002
10.364
21.418
14.065
27.329
31.652
11.219
16.573
5.0989
-1.8042
13.86
16.788
7.4974
14.151
6.8211
-3.3321
-1.5748
-1.3752
9.9831
-3.7661
-2.9834
-2.7502
-9.9307
10.941
-4.7428
-8.5433
-4.9681
3.9263
11.923
-21.542
7.266
7.8643
-18.779
-4.9425
5.5902
4.2365
-5.3727
11.633
-6.3907
1.4239
8.2125
-17.167
12.34
3.5989
1.7014
-6.396
-11.664
11.834
-1.0612
3.1743
-19.934
-38.824
-16.693
-17.529
-9.7523
-10.658
-16.762
24.291
18.6
18.023
31.618
11.989
33.426
25.985
8.8573
21.401
-3.1081
-0.38688
-5.605
-13.468
9.064
-7.2805
-15.361
-18.597
-9.8869
11.266
-14.952
-14.35
9.7008
-8.7501
-9.9615
4.4808
9.077
-3.0811
-4.3375
3.1651
0.68931
-0.019288
2.6452
1.5056
2.0504
-11.534
6.0564
3.5401
-11.286
10.609
0.14741
-1.5579
4.7977
2.6377
-7.7996
6.1841
0.27157
-6.0551
-1.3978
-5.362
8.782
3.4873
-1.8422
11.852
-0.69288
-12.36
-4.4063
1.6057
4.8046
4.8164
-6.3699
-8.5224
10.506
-0.10843
4.7567
2.5706
-8.2566
4.3983
0.83559
-10.587
10.512
5.9644
-9.1254
4.4229
-1.0922
-1.8336
-0.97192
5.0095
-11.731
-0.91552
5.1921
-7.8667
5.7608
-14.652
-0.5051
4.4768
-4.0324
2.3331
-16.277
-2.6373
8.1978
3.414
1.7812
-3.7704
7.5522
14.671
8.8646
1.3532
5.2814
3.7213
2.0381
4.7641
4.0287
-2.8585
-2.9552
4.7148
-5.1986
2.2483
4.3117
-11.436
-4.0003
9.1973
0.23627
2.6946
-0.46713
-3.2834
5.9229
-7.0405
-13.577
-19.846
-12.472
-3.5975
-22.314
-13.742
-3.9059
-4.4453
-11.998
-14.021
5.2706
42.17
34.854
-4.6712
13.251
-13.263
9.3986
21.14
4.2282
28.574
3.7985
5.2676
3.7435
-0.48559
4.5802
-11.595
-12.376
7.8298
-5.1844
-9.3284
-5.5011
-7.0962
-4.0497
0.91507
-2.9297
-3.2751
2.3753
-12.675
6.243
9.6947
-7.9581
-0.25548
-3.0394
2.956
4.295
-9.5517
-2.2097
5.1147
-4.5999
2.2024
9.2034
-6.8922
-9.1429
1.0039
2.2732
-2.9534
0.49682
-7.682
-0.17501
-1.7258
-3.6669
-0.061036
-0.95179
-1.7602
-7.9751
8.8653
6.9503
5.9128
-3.0511
-2.6609
1.8614
4.1835
-5.7926
-3.0919
8.6713
-3.1921
13.96
-1.5349
-6.1032
-3.6649
-8.7137
16.586
5.2945
2.9527
-10.01
-6.2173
8.7361
-8.6571
17.938
0.98304
-12.954
0.5088
0.36665
5.3682
-0.069832
6.7843
-4.7863
-10.237
8.156
-3.0837
-0.69327
10.939
0.24967
1.1998
-2.3237
-10.415
2.8612
4.6655
-0.94144
5.6597
7.2149
-0.99791
-9.6557
9.2873
4.2641
-6.7432
9.3579
2.0205
5.0003
8.8816
-10.222
11.118
-3.704
2.1918
3.6998
-10.673
10.152
-15.419
5.8186
-5.2645
-7.5398
13.46
-15.756
-12.352
-5.8274
-2.26
-15.119
-3.6929
5.6504
-7.7524
-3.0565
-6.0463
-24.818
-37.973
-24.658
-34.925
-8.5896
21.884
7.0251
29.849
57.139
39.086
24.536
21.344
-1.3793
-2.1236
-1.1677
0.42995
13.412
8.7797
16.624
8.9618
7.0013
0.12244
-4.2123
8.0343
-9.2665
-22.345
-16.429
-9.9093
-23.348
-7.2486
-27.027
-17.669
5.2025
-16.918
-3.8106
6.1643
10.597
6.4069
10.924
1.2899
-0.50102
3.2776
13.571
3.8225
-7.9448
-0.54085
5.7688
8.8143
-9.2163
7.9815
-1.4407
-1.742
5.9362
-17.219
6.8252
8.6676
1.123
1.391
-4.2807
4.5091
-2.6097
-9.6322
9.8732
10.079
-9.095
-3.8181
4.1561
0.24278
5.0345
0.39658
-14.452
8.4169
-0.82252
-0.74992
3.6468
-5.8525
0.59311
2.4473
-2.38
1.6251
2.3302
-1.5223
1.5977
-1.9017
2.1584
-10.008
-0.0069446
-1.1596
5.5793
4.1941
-2.3832
-7.2534
-7.2485
6.6063
7.0864
0.9744
-8.7057
11.383
-12.729
3.0261
22.417
-8.1812
-4.0352
5.718
1.2433
-14.793
4.711
15.26
-6.3564
-1.3687
11.876
-12.297
-8.2402
20.96
0.53649
-4.2618
-7.9362
-8.4208
16.978
-6.2731
-3.6048
14.141
-0.66101
-7.6843
4.3211
-1.505
-14.443
-3.2084
-13.13
-13.694
-24.754
-9.6917
9.6906
-5.3014
-3.8153
-16.194
-19.712
-26.197
-21.461
23.377
39.035
33.649
41.968
29.52
35.472
14.816
0.93875
6.3485
-6.7106
-13.795
-8.7518
-3.367
-14.075
3.6747
-9.4649
-11.728
1.176
-2.9223
-10.321
-2.6243
-1.7287
-0.46698
5.7305
-5.5822
-12.923
8.3524
2.0494
-1.719
0.25948
-5.6332
9.7911
-4.2562
-5.0288
1.501
1.7485
-1.1149
3.4252
-9.4544
14.892
-1.6833
-9.935
9.7551
-3.0759
-2.0612
-0.78185
6.6
1.2071
9.5538
-8.8548
-14.134
13.744
7.1055
-0.54392
0.57948
-3.7898
3.2924
2.6236
5.3712
-1.1224
-10.883
-3.7031
8.772
0.97174
-9.3633
9.7881
-9.2659
-12.043
1.0737
-19.962
-4.4959
-1.1521
-7.1259
-3.7306
8.9167
-2.4722
-1.797
20.056
-4.1032
23.013
25.792
0.44644
1.7329
-2.4973
4.4712
13.04
-4.2357
-8.4877
-1.8132
-0.73105
8.2395
-9.9508
0.031336
-23.377
-11.217
6.6536
-5.9974
6.4236
-6.8387
-2.5698
-0.26417
-8.1153
-3.8198
10.378
-1.9525
-1.7976
1.198
4.875
-2.7967
-0.21599
14.195
-3.1388
15.049
1.2499
-11.761
12.863
-1.3899
-11.811
-1.9482
0.3976
4.0994
1.3029
-4.0569
8.8592
-9.5017
-2.131
7.2187
-3.4677
4.4335
-5.2411
0.37148
2.5814
4.2521
-2.3652
1.0096
-4.5907
-2.4129
10.373
-2.0008
-1.6229
-4.4608
8.2048
9.8323
-14.389
4.0038
3.4615
-12.092
5.1391
9.9484
2.9735
-5.7306
-5.4582
-3.7503
5.5921
12.496
-4.5241
-16.018
-9.0057
-14.89
-3.7226
-7.8928
-21.334
1.0175
-1.7729
-0.079811
9.747
-0.6003
4.5107
13.269
10.456
-0.15777
1.4105
11.688
5.8149
4.2372
16.08
10.053
-6.3235
11.097
8.0171
-10.378
5.9813
-10.906
-10.099
1.8722
-11.136
12.642
3.67
-12.709
-6.0903
-3.0982
2.7855
-6.0817
5.8348
6.8098
-5.2168
-4.6142
2.5854
-2.0931
-1.0066
9.2213
-5.7495
0.32171
1.6131
-4.8985
5.9627
2.9088
0.72414
-3.2899
-12.691
2.5086
8.4421
-2.5432
-3.5327
-4.5696
7.9498
9.1395
-9.2705
-9.5905
-1.3136
-0.80088
1.2834
3.0885
-9.5269
8.9341
-7.0507
-5.159
17.861
-14.99
5.3942
-2.7186
-9.7401
8.373
4.299
14.561
-5.8699
-10.535
-11.008
2.3635
13.417
-8.9814
6.987
2.8181
-3.735
1.8268
-2.3202
5.8123
-0.32403
-5.8714
-8.6142
11.658
6.7712
1.8932
4.0937
-14.706
8.8883
8.2874
-4.7358
-11.055
10.273
4.8899
-5.5684
3.955
-9.8438
9.7201
-5.7154
-5.4975
0.86686
11.947
1.4109
-16.847
11.347
-2.9632
8.8541
-11.949
-0.092431
7.7521
-20.945
19.278
-3.3694
1.4891
3.8876
-0.67245
2.2859
-4.5496
4.7098
-10.243
8.2695
3.5774
4.2141
-9.2763
-7.0565
21.291
-0.044761
-6.1162
1.9343
6.4971
-15.884
2.9771
0.47203
-20.72
-1.3777
-2.8878
-9.0397
-7.2154
-2.8922
-17.077
-5.1707
-6.0238
12.858
11.553
-1.7043
15.14
10.948
16.042
14.18
12.195
10.836
7.1715
11.994
0.43643
3.484
-0.65319
-8.2489
-4.831
-9.0494
-0.43068
-15.888
-14.255
-23.053
-17.377
-29.262
-45.206
-5.4675
-4.8647
31.567
54.629
51.319
41.728
1.284
1.9068
-8.8147
-14.368
-5.0682
-5.5271
2.2311
0.27215
-8.4045
-14.847
-20.949
-20.608
-9.3159
16.805
4.1055
-7.2671
6.7872
26.188
6.4967
-11.512
9.4446
1.2867
8.3322
-16.002
-14.03
8.7058
-5.6313
-2.1397
6.9789
-4.8829
-12.539
6.172
2.5025
-8.6416
9.1431
6.8382
-0.51903
-5.2554
-5.9216
2.5112
5.1497
13.757
-4.7603
-3.7295
-1.7696
1.3208
-4.5394
-5.7699
13.771
-3.8343
5.5287
1.4545
-11.124
7.5598
-4.7109
-6.9117
12.38
5.2607
0.7882
-0.89308
-7.2996
3.301
-2.9831
6.195
-1.2972
-8.4793
-2.3412
3.3981
6.8674
5.1139
-2.2523
-17.072
11.141
-3.2821
3.6939
-2.5706
-0.77294
12.98
3.7961
5.6344
-25.512
10.027
17.824
3.5288
8.7368
4.5019
23.566
-5.8844
-7.1508
-2.0838
-23.715
-12.952
-13.464
2.1568
1.6651
2.5419
-10.163
-3.6685
-15.246
-23.659
11.727
-9.0644
6.4065
7.9525
6.5323
-3.7893
-0.49638
7.3565
-3.5232
14.629
5.5448
3.2801
-3.9472
-10.92
7.5664
6.0997
-4.9554
3.0228
4.6796
3.1053
-3.8247
1.4508
1.8861
-2.3638
10.984
-3.1184
0.52866
0.67179
-1.0204
1.6277
-5.0247
5.0277
-1.8848
3.926
2.3412
-10.762
8.4824
2.1637
-1.6691
4.5827
-5.4208
8.241
-17.367
-18.864
-31.966
-31.794
-3.5274
-11.2
9.6944
17.103
2.0432
-7.2006
-0.81951
-1.1237
-4.1951
17.776
35.173
27.391
21.895
23.948
22.491
-3.818
-1.1173
10.453
3.3163
-9.104
-6.9471
-7.2107
-24.212
6.1224
2.7812
-12.656
-5.9969
-1.3036
-4.2408
-16.896
-1.9175
-4.2098
5.83
5.1776
-10.009
7.0454
-0.83941
2.6249
4.323
-16.005
8.9141
2.8385
-4.3042
7.2952
-10.012
12.039
3.4132
4.3354
3.7062
-11.981
8.2176
2.6978
1.4503
0.83323
-5.177
-6.838
-3.0192
4.6409
1.9236
-1.1281
-11.176
-2.3394
-2.343
-6.0323
10.2
3.1936
-13.966
-8.3978
1.9262
-2.6255
0.44236
-8.946
3.3264
8.9049
6.3441
-0.8279
-4.8368
-4.5396
5.7785
7.9734
-7.748
6.7091
-5.2957
13.134
-5.6293
1.8301
19.578
-15.178
7.8477
2.8262
-1.505
15.676
-1.1416
-16.533
14.295
4.7551
-17.966
3.3516
-8.1282
6.2207
6.8861
-12.706
-1.8358
-13.048
9.7762
1.775
-10.082
1.3503
-7.2619
-1.5693
6.159
4.3853
-10.706
0.54321
8.2596
-2.6186
-10.145
3.1915
6.9044
6.9256
7.849
0.1079
2.9668
-1.8375
10.181
18.374
9.8673
1.3491
10.873
21.459
6.2778
-11.45
-13.481
-16.151
-28.56
-6.7815
-13.676
-17.638
-4.1949
-18.221
-3.8369
0.12712
-1.274
-0.90351
0.94998
2.4382
-3.1555
5.4015
4.2687
22.107
5.8946
-7.2924
11.648
0.59851
-2.266
8.5052
6.6872
-4.8033
0.41116
-4.6093
-3.6855
8.2346
3.388
5.2988
-6.7171
0.81686
3.7278
-1.7856
4.0985
-5.5837
5.206
-1.5253
1.8926
-2.1496
-8.1975
-0.28066
6.1175
13.467
-0.32078
-6.5294
-12.374
6.9653
5.7659
-7.9294
4.7022
5.1721
-0.083112
-9.9694
5.6333
6.5783
-8.9972
-3.9938
-2.2745
0.80321
-2.1689
0.78299
13.532
-7.9276
3.0408
-2.1083
1.4634
-5.5665
-20.02
25.814
-10.272
-2.4509
7.3251
-13.063
6.9902
11.225
-0.20899
-6.7959
-4.1683
-8.0025
5.1789
-0.32083
2.3908
1.5595
8.7463
-7.5725
-10.866
13.298
-8.9533
-2.9935
5.7321
13.608
-7.4459
-13.409
14.698
-6.2539
1.7472
9.9271
-5.7902
6.8466
-6.7247
0.71857
4.1209
-10.246
-4.1354
10.071
14.479
4.7579
-8.9095
-12.75
2.7788
4.1153
5.5328
-0.8805
8.3151
10.475
-4.9086
-10.554
-0.78614
0.95479
-1.0889
11.193
-4.4823
-0.85871
10.783
-6.5146
-4.5716
-12.849
-3.7769
8.3827
-12.46
-3.3479
-1.8919
-0.15292
7.2112
-4.1028
4.983
0.67769
-8.0892
-2.5063
8.3387
-0.32266
-0.55976
-1.5212
-4.1064
9.1082
-0.49967
-10.343
-10.032
2.7517
-2.8516
-14.294
-5.9697
-11.406
-20.359
-4.2177
-9.3469
4.1065
9.364
12.569
28.435
8.6985
31.847
20.321
7.7548
23.663
-3.123
5.6067
3.4017
-19.731
-1.4389
6.621
-15.017
-13.365
4.8392
-2.8736
-9.528
-9.1563
0.73687
-6.3009
1.8222
9.3024
-6.6356
4.1297
-11.832
3.9933
-2.0588
4.5927
6.3409
-10.291
10.637
4.4083
-7.0856
-12.348
3.6107
-4.8278
11.31
8.3812
-7.3278
-9.6709
-0.4125
-2.9244
-7.4124
-12.425
-15.598
-5.9204
-12.217
-0.79916
-14.85
-11.034
-1.4705
19.429
21.782
22.094
7.517
13.96
18.878
7.5481
8.0924
-0.016316
17.923
-6.5705
-1.4905
-0.035717
-7.7593
-5.29
2.9863
-1.2
-1.7717
-2.3815
-15.036
-7.4042
-4.9602
9.5286
-6.8241
-0.43978
-0.89934
-2.784
4.2628
-9.4386
2.6829
-8.9525
-3.0864
12.93
1.2006
-5.7146
5.3288
-1.5124
-10.479
8.1475
8.5679
-5.9957
-11.079
9.1097
7.2742
-11.209
-5.8281
8.207
1.7147
2.5389
-4.215
-6.2755
7.8521
-6.0671
2.8936
2.2238
-14.457
5.6482
2.8238
-4.5945
3.1115
-4.064
1.7606
-5.5002
2.5722
-6.7447
-8.6651
11.77
-16.595
-5.2095
1.9782
-0.37229
14.026
-11.138
6.1154
-2.4673
0.044962
33.424
13.261
44.67
69.218
55.853
56.918
52.463
35.572
14.838
-12.814
-57.076
-58.799
-67.129
-96.091
-61.996
-73.546
-72.569
-24.416
-13.849
-9.7463
-7.7653
17.955
22.335
9.7954
21.009
29.034
9.7237
13.785
32.859
19.939
4.8564
1.7228
19.869
18.68
0.47988
6.2919
8.8869
3.3834
3.0471
9.539
4.4032
-10.73
5.7571
2.3624
-0.68574
2.1738
-0.69064
2.4795
-0.35325
-13.233
-14.723
4.8681
-6.5998
3.7818
-18.113
-3.233
9.8035
-10.854
0.79962
-9.7083
-0.23312
2.3256
9.6104
-14.135
-4.774
5.7968
-0.40095
5.4176
-6.7882
12.614
-7.9548
8.5985
5.0093
-12.163
1.4839
6.1386
5.8951
-10.516
9.8901
-10.761
9.153
11.686
-8.8589
-0.0916
5.9387
-1.1443
-13.295
12.828
-4.8195
-4.3297
-0.85929
2.4371
7.6788
-7.0772
3.0579
-0.19016
3.2711
11.19
-12.825
-12.392
8.9509
5.6237
-0.042416
-6.0845
1.7579
5.7186
-9.3561
-3.3396
-0.2796
19.489
-8.7332
-7.8439
10.357
-5.232
0.33138
-4.4785
11.897
-7.4595
-5.5819
3.9347
-3.6726
-4.6509
12.128
0.60251
-2.4984
1.1396
-14.343
15.676
2.6771
-6.5035
1.154
-5.7234
8.1468
3.0833
0.64856
-13.784
-4.5967
9.245
0.26374
4.059
-10.345
8.0325
3.4824
-10.891
1.4427
10.201
-0.3078
-5.1881
1.5771
-5.7033
-2.7403
0.36782
5.5532
1.5802
-4.378
7.9289
-3.2399
-6.6518
-2.6075
11.213
1.7146
-18.065
14.735
4.0921
-10.655
3.4539
11.004
-7.1442
-5.1758
5.494
-6.0678
-2.1087
-1.3531
1.2644
-0.086021
0.086243
8.9474
2.5996
-11.728
-1.9113
2.7105
3.4675
-3.0671
-3.9777
1.3871
1.4827
6.6164
-7.1811
-6.5029
0.10421
7.4732
-6.9743
-8.1035
5.4751
0.12623
-0.21834
-5.661
-4.1032
3.9566
-7.3519
-13.884
2.083
-3.0236
3.0288
11.724
-11.849
-26.123
-6.4094
-3.1548
-23.492
-48.597
-112.01
-182.91
65.314
636.54
831.38
431.48
-133.8
-501.24
-582.27
-436.91
-223.5
-43.836
56.418
68.767
62.461
35.821
-2.0699
-20.873
3.4372
6.1661
10.481
16.738
14.274
13.92
14.22
21.556
26.97
14.591
0.16651
16.041
-8.4381
30.629
23.799
-6.7787
16.477
-1.4268
5.252
-3.6469
-1.0143
-1.104
6.4413
-2.5629
-3.5004
3.5153
-4.2734
-1.5083
1.9815
1.1172
-7.7808
5.9141
0.58541
6.5785
-10.852
-0.36225
4.0108
-18.065
6.1484
2.3286
9.3124
2.0339
-9.9006
-4.6715
-11.406
9.6515
9.1594
-6.4495
0.13425
-8.2663
1.9099
14.833
-12.762
-8.443
14.648
-3.0371
-6.4221
-5.4625
3.0034
-3.1791
0.53269
8.4354
-5.6461
8.0714
-8.5601
-5.5403
4.9117
-14.362
-7.0466
15.278
-0.35691
-6.2273
-4.8481
-7.3664
-4.1393
0.21202
16.471
-5.7334
0.97096
11.182
-13.365
0.39787
16.107
-11.128
-4.0434
10.166
21.787
62.383
73.156
128.94
121.14
80.372
60.156
-12.59
-65.547
-103.15
-106.11
-124.03
-130.1
-123.1
-97.375
-63.44
-41.149
-10.314
24.481
28.182
41.799
32.685
14.171
39.839
27.444
20.635
14.009
10.527
10.574
10.471
12.759
28.511
27.773
26.13
2.1945
-16.71
9.1914
14.539
5.5528
11.149
13.332
10.817
-0.61751
-6.1279
-5.734
-9.2567
3.7736
-7.4752
-15.344
-3.71
-11.064
-13.088
0.60067
-13.239
-3.0612
-5.8239
3.7737
-6.6782
-13.722
21.735
-6.1767
-9.2656
5.7331
14.232
1.3137
1.1766
16.802
-1.0023
6.4061
4.0244
-5.2076
-0.69583
-1.4999
1.8197
-2.8179
7.855
3.3108
-10.959
-3.2816
-0.18165
-4.8603
8.0065
-11.596
-9.4859
13.978
-6.2406
-0.96489
-6.1374
6.4372
5.6484
-6.0138
-8.8519
2.268
10.196
-3.0476
-0.77505
0.070993
-0.51657
-5.949
6.9061
3.6089
-5.4626
-0.018791
1.7482
-1.7005
-3.1065
6.2271
2.557
-6.8484
8.9653
-6.2808
1.9517
2.488
-14.808
12.948
-0.5606
5.1239
1.4506
-7.067
1.1306
4.1759
-8.9507
-4.0015
23.433
-14.167
-9.942
4.9535
12.959
0.53577
-15.636
5.4462
-1.0703
6.0276
1.8863
11.144
-2.6351
-15.267
1.9917
1.1809
2.639
1.2816
1.516
4.9853
1.57
-13.257
7.8039
4.0005
-3.048
11.493
-3.2953
4.2635
-0.36427
-14.247
-20.82
-24.968
-15.553
7.3467
4.2389
-2.8476
-4.1436
-27.235
-19.163
-15.248
-6.5526
21.574
32.71
33.909
44.298
30.009
23.531
18.919
-5.9395
-7.2429
0.56715
-8.3786
-6.7351
-15.02
-15.79
-0.34992
-4.8676
-0.73229
-7.4934
-6.3466
-16.806
12.363
-3.9627
-13.613
17.159
-4.5006
-4.0108
-9.4175
4.169
3.2115
-6.0405
-0.86697
1.7989
0.18214
4.9091
1.4628
0.96958
3.5376
-2.9674
-2.6449
-3.4083
12.506
-6.311
-8.0164
6.6214
-2.9758
4.7136
-2.2252
-1.3437
2.1505
0.4441
3.1481
2.3963
-1.6869
-8.4002
2.0634
6.1526
1.6251
-13.743
1.1079
15.761
-3.328
-1.7749
1.9379
-4.2213
-8.0036
7.1159
8.2305
-9.4004
4.3482
1.4162
-7.4869
6.7841
-0.8147
-0.054009
-5.7831
9.1957
3.2563
-6.625
4.9977
1.4219
3.5129
1.1845
3.0013
-2.131
0.94247
-2.8902
5.8626
5.1276
7.2793
12.394
3.1445
5.7336
3.2513
1.8064
3.0539
-4.6226
-6.8938
-5.3787
-11.261
-21.316
-19.923
-1.3129
4.9502
-4.5412
-12.109
4.03
-4.1703
5.7078
22.69
-8.4591
-4.2301
-2.6658
-18.202
-53.496
-51.164
-50.139
-38.62
-13.14
-9.338
34.197
45.132
57.452
71.243
60.813
34.86
36.045
9.7634
-2.5337
19.008
-12.27
-8.2399
9.7402
-6.3034
-2.3544
-13.937
-16.327
-2.4937
-28.507
1.4666
1.6243
-20.087
-10.803
0.84371
0.33268
-11.949
-3.1377
-9.2189
7.8066
1.7076
5.2798
8.6334
-8.3184
1.5974
-3.7795
-8.238
12.341
3.0772
-5.8761
9.4373
5.5005
0.87408
-5.1014
-5.1659
1.5498
2.2887
2.6442
-7.0529
0.57998
1.2934
-11.017
3.6135
-3.1836
-8.947
14.132
1.6486
-10.499
2.1318
-4.5463
2.1851
-6.0041
-10.649
-1.6538
8.4842
8.6765
-4.054
3.1563
-7.3458
-4.7345
5.1963
-4.4224
0.2397
8.9379
-4.0038
-9.5016
-7.6678
-6.3829
-3.872
-13.748
-11.037
6.258
19.003
-8.2629
0.97476
16.363
11.298
18.555
4.3006
6.3151
14.387
5.6118
16.335
-0.27657
-16.09
9.3191
-4.1107
3.1387
-10.63
-15.78
12.039
-4.9753
-2.9688
-6.0724
-9.1177
14.186
-12.324
-2.0224
7.3668
-13.487
4.2717
-3.7733
4.1809
-2.8026
-1.1171
-1.975
-8.8491
12.994
0.90312
-0.27608
2.0592
-3.839
3.9587
-2.6194
0.90074
3.7389
-5.6691
-3.8206
3.3038
15.355
-4.6164
-12.755
5.0805
4.346
-0.33144
-0.35531
-0.42244
1.3474
1.1916
-1.504
-4.9416
-1.5129
7.9114
-0.81162
-0.19065
-5.2261
-7.5535
8.324
9.3496
-5.0853
-15.055
12.48
6.0186
-9.0035
1.9369
-2.8943
4.4712
-6.3316
7.0611
2.0148
-0.68842
11.556
-25.816
0.39657
13.457
3.1231
0.10104
-15.002
0.9113
1.6728
-1.731
-0.11762
-5.5091
6.17
-2.2876
-3.2672
9.6431
-11.163
1.3755
-1.5063
-0.56652
14.902
4.905
0.20216
-4.9942
8.9361
2.4808
2.8835
0.91257
-1.8024
7.6053
-4.9574
3.2791
-11.637
0.059096
1.0581
-6.1474
16.98
-7.7746
-11.039
0.97076
6.3507
-8.1124
-5.4583
13.08
13.33
-13.853
-16.788
5.8736
7.1843
17.828
-8.049
-12.861
1.7664
-8.105
2.9398
0.036641
-3.4852
0.2632
-3.4551
17.878
-4.4068
-13.061
-0.89063
7.1493
8.9704
-3.7657
2.4309
-13.848
0.48723
4.8567
-7.0536
-1.7749
3.7407
-1.3969
-0.51558
5.5409
1.8315
-1.83
-6.9234
3.9758
3.8482
-1.7047
2.5096
-1.2913
5.6814
3.2115
-3.5636
1.4343
-3.8711
13.116
-1.3954
-7.9949
-4.8644
-1.0733
13.644
-0.78787
1.9874
5.2034
-3.9256
-10.85
10.552
3.7539
-6.629
0.69994
-12.571
-10.834
-3.6425
-2.365
-4.8607
-23.301
-6.7838
2.8159
2.7632
24.584
5.2749
-8.4676
12.597
7.6573
-2.5086
5.5717
8.5523
13.032
12.025
12.294
-4.8493
11.959
6.814
-12.31
-8.2912
-4.7242
1.8943
-3.6786
-1.3026
-5.9737
-6.7049
-2.7948
3.682
-5.4441
-11.483
-10.356
14.848
-0.70564
-13.869
-1.884
3.0686
10.415
-14.39
-0.86674
-0.90195
7.8955
2.407
-11.434
14.088
-1.3222
-1.1957
-0.19384
-13.036
5.2159
9.68
4.8173
-5.0892
3.497
2.07
-5.5991
7.8668
-2.3284
-7.4219
-1.0544
6.9058
1.8536
-9.1471
4.9894
-3.4322
3.858
10.088
-6.7676
3.9585
-6.1041
5.2237
7.6133
2.4605
2.3973
-3.2423
15.798
1.0205
1.2625
3.444
-3.0277
11.813
-2.9485
-8.3254
1.0468
-5.701
-8.1271
-18.047
-19.572
-12.717
-22.815
12.01
3.3511
-7.3419
17.168
-3.074
1.0658
10.344
5.4186
12.001
-3.8982
-2.3292
5.7843
-4.4025
11.952
-0.95563
7.6873
-3.1313
-15.059
0.42928
-0.019962
4.6809
-2.787
5.2576
6.535
-2.515
-6.7944
-3.9677
1.5106
0.84935
-1.6676
1.4704
-2.336
0.10522
6.8456
-4.8391
4.9961
-1.8561
-2.4613
9.0931
-3.2658
7.2408
-2.5124
2.7363
13.004
-14.347
3.2656
7.8815
-0.74241
0.6831
8.3946
-1.3304
2.097
13.917
-11.053
-8.3841
-6.1123
3.4238
-7.6628
-5.0976
-9.4422
-3.7593
0.77969
-11.162
3.0132
-15.823
-10.808
3.9978
11.157
3.4193
-15.88
-3.5777
11.318
9.92
2.9509
-11.726
-1.1677
10.284
-1.7093
-0.67103
3.8816
5.3207
4.8817
2.1744
-8.0421
11.178
-3.9894
-3.4388
13.315
4.3403
6.9288
-4.6842
9.8986
0.59302
12.583
10.771
-10.027
21.859
19.488
4.2166
3.3323
-19.458
-16.658
-13.022
-13.633
7.175
1.9853
6.8718
-12.221
-20.016
-14.833
-8.1706
2.9427
-13.351
3.2576
3.3526
-7.7132
0.24268
3.2469
-4.7768
10.85
-2.3373
-11.286
11.826
4.1786
-3.3051
-7.2553
8.8515
6.9229
-14.143
5.5394
-0.73579
0.58174
0.031719
-2.345
21.29
0.71226
-5.0114
-7.7928
4.1745
4.3885
-0.87889
-2.8421
3.3674
10.063
2.1963
-4.6648
2.6357
1.3146
-3.1056
3.6506
-7.5853
7.2608
0.98699
3.6736
2.9427
-2.9461
-6.5993
-4.9087
13.843
-5.2951
4.3851
-4.6304
-6.3478
10.649
-5.7348
7.7487
-3.3157
-8.7112
-0.99894
5.9322
3.1172
-7.8867
6.3419
-3.5751
-4.0239
6.2604
-3.2386
5.1567
-1.3315
-4.7313
-4.7843
-3.3424
12.651
-6.5034
-1.7113
-3.2339
-2.4196
19.97
-8.4992
-5.7378
-7.3971
-2.4839
12.193
-4.0081
6.2166
-11.577
6.2569
5.1857
-4.9415
3.1966
-9.5197
7.0013
-6.5874
-0.57366
8.4511
-6.6437
5.9611
6.1576
-1.2244
1.3496
-9.8333
-6.6253
-0.85736
7.3791
18.077
-1.043
-2.8167
3.0673
-8.3949
11.138
-4.5492
-8.5139
16.493
10.743
0.42737
-2.8433
4.8647
5.5602
6.7292
4.179
4.6247
-7.623
-1.5338
-2.2361
2.1976
7.588
-4.2944
-7.1964
-4.9812
-11.317
-23.819
-36.053
-47.9
-16.068
-11.27
-1.2532
15.153
7.9645
3.4626
-7.0981
-3.169
-2.7085
5.1972
31.358
38.178
24.787
25.772
25.364
14.473
6.1515
2.4072
4.8513
-6.5149
-8.628
-1.1258
-11.689
-12.968
-17.621
-11.004
-15.704
-13.895
-6.0571
-17.323
-1.5157
-3.2384
-12.092
3.8929
6.5219
23.162
7.1079
5.7717
20.072
8.1662
11.424
-7.507
12.55
7.5314
-2.4567
2.6685
-3.0016
2.9813
-11.159
-0.083463
-4.7573
-5.797
-2.1059
1.1809
3.1749
-4.7712
-8.6389
-15.891
1.8649
-1.778
4.9514
1.3788
-1.2167
4.9316
-3.8582
0.58593
-4.8967
-3.4466
1.2459
4.5204
8.0409
-5.3317
-6.5932
4.167
0.62325
-3.5252
-1.9485
13.377
-2.7939
-7.5629
0.8606
-4.756
7.2623
5.993
0.24586
-10.911
2.3637
5.5773
0.73338
-0.2111
-5.5551
3.6547
-13.813
14.19
3.7418
-11.345
11.948
-1.225
6.3262
-12.123
-1.0172
6.5146
-9.5078
5.2486
5.121
-0.49545
1.9498
2.3461
1.9835
12.822
-8.4003
-5.2622
14.152
-1.7688
-3.0697
6.0276
4.322
-5.4535
5.2364
-1.03
0.66662
1.857
-13.883
9.1643
1.6568
-9.3406
-1.1914
0.030092
3.1778
-19.184
-5.1114
2.1874
-19.543
-22.353
-23.41
-26.165
-28.355
-14.792
-2.188
37.466
52.985
46.795
49.327
22.36
-3.5394
-15.488
-9.9737
-4.4479
-1.5506
-1.9872
1.8693
-0.19075
-5.845
-9.6622
-25.903
-20.845
3.7789
7.7121
30.488
12.955
-13.437
3.1248
10.485
15.804
0.65984
-7.3038
-18.456
-7.6598
-0.72407
-5.8542
6.8975
-7.7006
1.1047
-0.40193
-4.5792
11.525
-10.846
-11.613
4.8498
11.206
-1.7556
-10.099
5.6929
9.8874
-7.2962
-0.76477
-2.3256
1.8408
11.655
-4.6526
5.4703
-5.784
-12.066
9.9292
7.9182
-1.8331
2.0136
-13.483
1.2578
9.2704
-4.3217
-3.2276
-2.1027
-2.4852
-12.257
-1.8705
-16.139
-22.661
-10.914
-6.0498
-13.131
9.9881
8.4531
9.5987
28.024
17.81
18.005
10.453
7.143
3.4482
13.85
-3.6889
11.483
-0.056052
-12.216
8.7433
2.3003
5.7726
-5.9862
-17.019
-8.4256
-0.75004
-5.9344
6.1625
-5.3448
3.1992
-1.3119
-16.415
-6.7466
15.2
9.7984
-22.432
1.7362
-2.7168
3.8434
-1.1719
-2.5873
3.2789
-10.975
21.201
-6.0706
-5.9779
2.5681
-1.8826
5.5096
-3.7873
-3.0018
-10.183
7.6399
-1.2102
7.4937
-10.245
-13.893
18.295
2.8879
5.1381
-8.9883
-6.509
-0.075133
5.2406
4.3772
-6.383
12.57
-2.9606
0.77856
9.3331
12.2
-3.7224
-0.12817
11.386
10.131
16.375
4.4757
19.895
4.8884
0.54885
-3.9846
-17.903
-25.659
-24.257
-14.596
-5.8513
-0.027772
-16.103
0.47061
-10.406
-25.753
-7.5106
10.663
-4.1206
6.5155
7.059
-8.9538
19.688
5.564
10.295
3.2807
2.0168
13.426
-10.148
-3.2237
11.73
-1.3388
-3.8223
7.0203
0.88908
4.0049
-3.3632
-4.3004
12.337
-3.7521
-8.3227
-5.4856
-1.1397
8.7391
2.0078
-1.149
4.687
-0.13482
-6.4243
-2.8258
-2.5166
7.3214
8.1704
-4.6131
3.9112
-7.381
-6.5048
0.83763
-12.418
0.26344
9.5741
5.8289
-7.4059
0.39607
-2.3831
-0.26749
-11.704
-10.449
5.9046
0.046232
-2.9581
8.3672
-0.94034
-18.468
-3.8652
0.97466
16.131
-3.206
20.893
43.729
37.497
47.586
74.985
48.315
33.182
55.088
8.8892
-1.9842
-46.726
-71.131
-84.284
-79.876
-69.263
-73.527
-49.286
-42.14
-21.751
-5.7675
5.6488
6.501
13.357
16.963
23.883
15.579
21.842
19.239
4.5702
28.682
17.143
7.0162
17.638
7.6362
-10.016
11.594
1.5038
8.3811
9.4457
-0.24094
6.7827
-15.162
9.9878
0.13268
5.19
-9.2223
-4.6087
2.6783
1.1058
7.3826
-12.424
0.39791
-1.9559
7.6304
-9.0789
5.6552
-6.4729
1.7904
10.718
-15.181
6.815
-3.7597
-0.43235
-1.0598
2.3753
-2.017
-3.3665
13.048
-11.713
-6.5884
6.6729
-3.2072
2.209
-0.5541
4.411
9.4255
-11.932
-1.3582
-2.1431
-9.0016
11.113
-1.3572
9.6421
-2.2778
-11.22
2.752
1.7062
0.04273
1.4481
9.3942
-21.174
4.8692
7.853
-3.0359
5.901
-5.3764
12.636
-12.919
-9.0726
-1.7373
3.9944
9.6755
-2.4277
-11.576
-1.7253
7.5267
-3.716
16.487
-1.9886
-1.1284
-6.4509
-3.8204
12.162
-11.565
-3.8932
14.166
0.083079
-4.8351
-3.2782
-8.4692
4.5256
-4.3844
1.5412
10.203
-1.575
-10.132
7.7795
12.216
-8.9294
-3.9418
1.3578
0.69126
2.7598
-1.9294
-8.39
6.4291
11.475
-3.6061
-8.5695
5.8213
1.1352
-9.3268
12.531
-6.0429
-6.613
20.585
-16.342
-5.5597
15.641
-8.3198
12.211
-2.4363
-5.2874
7.8246
0.96229
-9.0226
-7.9479
3.0982
-4.7283
17.281
10.923
1.2387
-7.1514
-9.5654
4.6357
4.0868
-2.2714
1.836
